SpectraSuite Data File
++++++++++++++++++++++++++++++++++++
Date: Tue Sep 17 13:34:38 GMT+07:00 2024
User: optic
Dark Spectrum Present: No
Reference Spectrum Present: No
Number of Sampled Component Spectra: 1
Spectrometers: USB4H09011
Integration Time (usec): 5000000 (USB4H09011)
Spectra Averaged: 7 (USB4H09011)
Boxcar Smoothing: 4 (USB4H09011)
Correct for Electrical Dark: No (USB4H09011)
Strobe/Lamp Enabled: Yes (USB4H09011)
Correct for Detector Non-linearity: No (USB4H09011)
Correct for Stray Light: No (USB4H09011)
Number of Pixels in Processed Spectrum: 3648
>>>>>Begin Processed Spectral Data<<<<<
346,55	1306,90
346,77	1306,90
346,99	1306,90
347,20	1348,73
347,42	2769,34
347,64	3522,12
347,86	3895,89
348,07	4252,07
348,29	4444,97
348,51	4773,30
348,72	4778,30
348,94	4680,23
349,16	4685,43
349,37	4737,18
349,59	4294,72
349,81	4158,64
350,02	4194,92
350,24	4332,66
350,46	4552,54
350,67	4641,09
350,89	4713,77
351,11	4770,24
351,32	4744,30
351,54	4774,30
351,76	4744,46
351,98	4649,70
352,19	4626,59
352,41	4355,67
352,63	4394,52
352,84	4294,36
353,06	4235,69
353,28	4160,72
353,49	4159,26
353,71	4295,31
353,93	4649,47
354,14	4771,73
354,36	4825,53
354,58	4792,44
354,79	4888,05
355,01	4919,84
355,22	5016,09
355,44	5464,37
355,66	5462,06
355,87	5126,46
356,09	5070,09
356,31	5140,17
356,52	4984,17
356,74	5009,72
356,96	4908,23
357,17	4756,42
357,39	4382,59
357,61	4441,72
357,82	4453,00
358,04	4428,10
358,26	4298,88
358,47	4244,11
358,69	4238,09
358,90	4240,53
359,12	4321,12
359,34	4252,62
359,55	4140,38
359,77	4383,27
359,99	4536,09
360,20	4679,61
360,42	4828,07
360,63	4734,29
360,85	4817,15
361,07	4802,68
361,28	4730,91
361,50	4814,16
361,72	4490,09
361,93	4287,73
362,15	4261,89
362,36	4329,28
362,58	4358,11
362,80	4249,96
363,01	4416,36
363,23	4533,81
363,44	4524,61
363,66	4736,79
363,88	4679,02
364,09	4680,19
364,31	4561,09
364,52	4603,18
364,74	4610,56
364,96	4548,73
365,17	4641,12
365,39	4682,60
365,60	4655,07
365,82	4712,31
366,04	4662,28
366,25	4798,52
366,47	4671,87
366,68	4750,90
366,90	4661,21
367,12	4509,82
367,33	4439,25
367,55	4334,90
367,76	4399,10
367,98	4316,21
368,20	4202,14
368,41	4397,05
368,63	4515,19
368,84	4487,81
369,06	4490,48
369,27	4433,33
369,49	4722,36
369,71	4587,91
369,92	4611,12
370,14	4600,23
370,35	4616,80
370,57	4725,51
370,78	4815,52
371,00	5080,23
371,22	5114,07
371,43	4914,44
371,65	5040,25
371,86	5124,08
372,08	5344,26
372,29	5127,82
372,51	5083,61
372,72	5036,80
372,94	4866,79
373,16	4820,17
373,37	4870,75
373,59	4971,49
373,80	4989,05
374,02	4760,23
374,23	4820,33
374,45	4683,54
374,66	4797,29
374,88	4908,23
375,09	5149,05
375,31	5162,93
375,53	5097,43
375,74	5080,49
375,96	5263,28
376,17	5264,35
376,39	5230,74
376,60	5077,43
376,82	4818,71
377,03	4694,95
377,25	4428,00
377,46	4381,48
377,68	4368,35
377,89	4398,13
378,11	4404,99
378,32	4548,99
378,54	4592,46
378,75	4716,21
378,97	4687,74
379,19	4770,79
379,40	4742,02
379,62	4788,31
379,83	4632,54
380,05	4705,19
380,26	4796,83
380,48	4783,63
380,69	4776,51
380,91	4703,53
381,12	4661,37
381,34	4718,55
381,55	4659,81
381,77	4706,52
381,98	4798,65
382,20	4658,41
382,41	4705,48
382,63	4863,05
382,84	5090,70
383,06	5261,69
383,27	5145,28
383,49	5229,60
383,70	5111,93
383,92	5045,61
384,13	5014,40
384,35	5097,30
384,56	4900,76
384,78	4899,72
384,99	4863,73
385,21	5071,52
385,42	4964,73
385,63	4965,38
385,85	4834,73
386,06	4858,14
386,28	4832,59
386,49	4818,61
386,71	4699,99
386,92	4769,95
387,14	4700,74
387,35	4619,92
387,57	4776,87
387,78	5025,00
388,00	4942,95
388,21	4955,82
388,43	5078,67
388,64	5165,89
388,86	5025,46
389,07	5113,52
389,28	5519,28
389,50	5441,81
389,71	5484,01
389,93	5463,20
390,14	5510,76
390,36	5508,58
390,57	5487,19
390,79	5705,93
391,00	5629,41
391,22	5346,92
391,43	5327,68
391,64	5223,10
391,86	5274,49
392,07	5194,40
392,29	5223,07
392,50	5182,60
392,72	5088,29
392,93	5110,17
393,14	5019,96
393,36	5043,24
393,57	4987,23
393,79	4977,77
394,00	4994,74
394,22	5012,87
394,43	5151,32
394,65	5088,39
394,86	5182,47
395,07	5366,88
395,29	5383,26
395,50	5453,48
395,72	5524,18
395,93	5426,01
396,14	5479,68
396,36	5318,02
396,57	5401,79
396,79	5903,12
397,00	5869,67
397,22	5844,84
397,43	5698,88
397,64	5612,02
397,86	5669,56
398,07	5520,54
398,29	5603,44
398,50	5427,05
398,71	4999,74
398,93	5009,98
399,14	5006,73
399,36	5025,68
399,57	5204,77
399,78	5129,64
400,00	5014,18
400,21	4917,79
400,43	5047,63
400,64	4785,97
400,85	4794,16
401,07	4791,66
401,28	4839,09
401,50	4653,86
401,71	4705,52
401,92	4796,64
402,14	4907,49
402,35	5103,86
402,56	5193,23
402,78	5077,53
402,99	5827,97
403,21	5861,25
403,42	5824,98
403,63	5851,14
403,85	5863,20
404,06	5805,54
404,27	5500,10
404,49	5462,42
404,70	5654,57
404,92	4817,60
405,13	4876,93
405,34	4960,44
405,56	4877,51
405,77	4778,82
405,98	4715,07
406,20	4833,86
406,41	4904,40
406,62	4875,89
406,84	5078,18
407,05	5016,39
407,27	5087,48
407,48	5118,30
407,69	5109,32
407,91	5192,28
408,12	5308,76
408,33	5165,11
408,55	4984,95
408,76	4883,46
408,97	4803,56
409,19	4771,77
409,40	4866,56
409,61	4995,03
409,83	4995,45
410,04	4912,69
410,25	4980,53
410,47	5170,21
410,68	5382,39
410,89	5584,71
411,11	5510,37
411,32	5425,46
411,53	5519,57
411,75	5621,06
411,96	5574,41
412,17	5619,11
412,39	5603,67
412,60	5455,07
412,81	5321,34
413,03	5464,27
413,24	5433,36
413,45	5315,03
413,67	5157,92
413,88	5155,16
414,09	5142,55
414,30	4963,56
414,52	4855,83
414,73	4743,03
414,94	4607,96
415,16	4544,09
415,37	4694,79
415,58	5471,16
415,80	5408,10
416,01	5388,76
416,22	5487,35
416,44	5564,59
416,65	5567,58
416,86	5682,63
417,07	5789,93
417,29	5644,56
417,50	4858,17
417,71	4903,81
417,93	4894,81
418,14	4944,32
418,35	5044,37
418,56	5206,26
418,78	5201,09
418,99	5180,48
419,20	5181,78
419,42	5319,81
419,63	5326,25
419,84	5476,92
420,05	5395,91
420,27	5119,63
420,48	5427,60
420,69	5323,22
420,91	5397,02
421,12	5315,55
421,33	5244,56
421,54	5280,12
421,76	5101,26
421,97	5049,71
422,18	5421,62
422,39	4890,16
422,61	4944,54
422,82	4974,84
423,03	5117,00
423,24	5127,43
423,46	5010,01
423,67	5025,16
423,88	5211,56
424,09	4908,72
424,31	4965,61
424,52	4992,53
424,73	4998,31
424,94	4961,19
425,16	5002,90
425,37	5123,08
425,58	5168,85
425,79	4975,49
426,01	4988,07
426,22	5104,77
426,43	5174,50
426,64	5119,27
426,86	5073,76
427,07	5096,45
427,28	4944,15
427,49	4893,12
427,71	4893,87
427,92	5030,40
428,13	5159,22
428,34	5067,26
428,55	5110,07
428,77	5113,29
428,98	5077,69
429,19	5208,54
429,40	5218,35
429,62	5322,41
429,83	5264,64
430,04	5193,91
430,25	5254,11
430,46	5457,74
430,68	5471,85
430,89	5452,08
431,10	5487,35
431,31	5579,02
431,53	5599,37
431,74	5656,52
431,95	5567,91
432,16	5601,75
432,37	5359,24
432,59	5310,45
432,80	5205,22
433,01	5168,49
433,22	5157,27
433,43	5113,97
433,65	5032,22
433,86	5023,60
434,07	4977,31
434,28	4947,83
434,49	4998,12
434,71	5053,31
434,92	5878,09
435,13	5982,77
435,34	5883,29
435,55	5861,71
435,76	6011,83
435,98	6138,84
436,19	6181,68
436,40	6285,31
436,61	6245,69
436,82	5455,17
437,03	5314,67
437,25	5372,89
437,46	5332,00
437,67	5210,52
437,88	5120,57
438,09	5343,67
438,31	5160,65
438,52	5236,23
438,73	5154,09
438,94	5162,02
439,15	5221,15
439,36	5347,51
439,58	5348,87
439,79	5414,50
440,00	5110,85
440,21	5151,84
440,42	5152,33
440,63	5267,25
440,84	5251,25
441,06	5431,05
441,27	5361,03
441,48	5296,57
441,69	5071,03
441,90	5172,03
442,11	5227,94
442,32	5182,60
442,54	5174,99
442,75	5103,64
442,96	4944,02
443,17	4948,84
443,38	5137,83
443,59	5105,20
443,80	5129,32
444,02	5160,07
444,23	5166,54
444,44	5026,04
444,65	5182,66
444,86	5084,98
445,07	5136,60
445,28	4998,93
445,49	5016,39
445,71	4993,14
445,92	4976,73
446,13	5147,00
446,34	5185,39
446,55	5072,07
446,76	5155,03
446,97	5103,99
447,18	5113,94
447,40	5210,91
447,61	5214,58
447,82	5141,70
448,03	4934,76
448,24	5077,47
448,45	5064,95
448,66	5106,63
448,87	5101,36
449,08	5064,27
449,29	4973,48
449,51	4990,25
449,72	5036,96
449,93	4999,90
450,14	4924,94
450,35	4964,34
450,56	4859,50
450,77	5095,25
450,98	5544,83
451,19	5550,94
451,40	5548,47
451,61	5521,06
451,83	5671,67
452,04	5710,16
452,25	5675,73
452,46	5672,52
452,67	5470,94
452,88	5060,56
453,09	5238,64
453,30	5156,75
453,51	5203,95
453,72	5247,03
453,93	5171,22
454,14	5459,88
454,35	5548,83
454,57	5629,09
454,78	5690,85
454,99	5597,81
455,20	5606,20
455,41	5456,28
455,62	5406,41
455,83	5725,24
456,04	5409,86
456,25	5416,97
456,46	5334,02
456,67	5513,68
456,88	5640,46
457,09	5565,66
457,30	5693,61
457,51	5730,35
457,72	5363,47
457,93	5464,24
458,14	5479,97
458,36	5493,69
458,57	5465,28
458,78	5372,99
458,99	5449,22
459,20	5535,17
459,41	5363,86
459,62	5462,65
459,83	5433,42
460,04	5419,90
460,25	5386,74
460,46	5231,00
460,67	5142,35
460,88	5322,48
461,09	5316,27
461,30	5288,51
461,51	5243,91
461,72	5222,06
461,93	5256,91
462,14	5207,01
462,35	5093,33
462,56	5076,43
462,77	4833,86
462,98	4731,43
463,19	5004,20
463,40	5184,03
463,61	5292,54
463,82	5335,41
464,03	5498,18
464,24	5578,50
464,45	5753,85
464,66	5858,75
464,87	5955,43
465,08	6046,74
465,29	5920,94
465,50	5814,09
465,71	5805,05
465,92	5800,53
466,13	5874,00
466,34	5786,23
466,55	5750,40
466,76	5723,81
466,97	5533,87
467,18	5379,33
467,39	5891,49
467,60	5711,52
467,81	5577,79
468,02	5634,51
468,23	5608,61
468,44	5633,77
468,65	5845,29
468,86	5891,39
469,07	6086,34
469,28	5814,31
469,49	5987,42
469,70	6015,44
469,91	5883,75
470,12	5987,87
470,33	6011,70
470,54	5808,04
470,75	5693,81
470,96	5620,02
471,17	5358,92
471,38	5314,58
471,59	6271,66
471,80	6402,70
472,01	6325,98
472,22	6416,09
472,43	6492,35
472,63	6494,86
472,84	6582,07
473,05	6669,97
473,26	6731,74
473,47	5823,06
473,68	5703,04
473,89	6098,49
474,10	6031,53
474,31	6022,36
474,52	6169,98
474,73	6138,15
474,94	6172,58
475,15	6132,63
475,36	6138,12
475,57	6055,13
475,78	5691,60
475,99	5707,23
476,20	5621,97
476,40	5498,41
476,61	5610,72
476,82	5569,82
477,03	5468,17
477,24	5448,38
477,45	5762,46
477,66	5787,10
477,87	5889,73
478,08	5993,04
478,29	6057,76
478,50	6138,28
478,71	6363,53
478,92	6442,45
479,12	6596,90
479,33	6470,35
479,54	6433,94
479,75	6292,11
479,96	6209,44
480,17	6291,59
480,38	6246,47
480,59	6157,56
480,80	6232,29
481,01	6227,42
481,22	6134,32
481,42	6155,51
481,63	6137,37
481,84	6098,14
482,05	5935,11
482,26	5763,93
482,47	5634,38
482,68	5578,50
482,89	5506,14
483,10	5542,06
483,30	5473,99
483,51	5657,40
483,72	5788,66
483,93	5847,80
484,14	5903,32
484,35	5918,14
484,56	6116,67
484,77	6139,71
484,98	6136,23
485,18	6240,49
485,39	6311,55
485,60	6295,03
485,81	6272,60
486,02	6291,98
486,23	6285,48
486,44	6127,65
486,65	6027,85
486,85	6073,37
487,06	6058,54
487,27	5948,80
487,48	5871,36
487,69	5936,77
487,90	5789,93
488,11	5838,73
488,31	6185,81
488,52	6476,26
488,73	6533,48
488,94	6483,09
489,15	6602,23
489,36	6614,55
489,57	6743,80
489,77	6950,51
489,98	6846,81
490,19	6517,25
490,40	6487,12
490,61	6369,83
490,82	6541,89
491,02	6502,43
491,23	6613,57
491,44	6392,65
491,65	6334,37
491,86	6476,03
492,07	6433,87
492,27	6318,18
492,48	6627,36
492,69	6485,56
492,90	6296,85
493,11	6227,13
493,32	6362,16
493,52	6377,02
493,73	6408,00
493,94	6424,28
494,15	6261,94
494,36	6211,81
494,56	6296,63
494,77	6540,11
494,98	6651,35
495,19	6746,20
495,40	6819,70
495,61	6755,34
495,81	6730,28
496,02	6883,48
496,23	6842,98
496,44	6648,65
496,65	6508,64
496,85	6602,94
497,06	6419,18
497,27	6306,77
497,48	6304,72
497,69	6399,64
497,89	6331,44
498,10	6321,33
498,31	6533,80
498,52	6514,85
498,73	6467,71
498,93	6629,34
499,14	6735,18
499,35	6807,58
499,56	6732,65
499,76	6735,90
499,97	6694,26
500,18	6669,19
500,39	6668,54
500,60	6553,40
500,80	6363,46
501,01	6389,24
501,22	6232,78
501,43	6293,41
501,63	6303,58
501,84	6173,29
502,05	6101,71
502,26	6047,85
502,47	6070,76
502,67	6264,18
502,88	6138,97
503,09	6363,23
503,30	6205,96
503,50	6347,53
503,71	6600,28
503,92	6557,04
504,13	6659,15
504,33	6610,45
504,54	6558,86
504,75	6576,06
504,96	6584,09
505,16	6744,71
505,37	6581,91
505,58	6318,80
505,79	6296,27
505,99	6195,63
506,20	6322,05
506,41	6260,67
506,62	6247,15
506,82	6145,99
507,03	6089,46
507,24	6077,66
507,45	6032,99
507,65	6117,58
507,86	6161,46
508,07	5946,72
508,27	5875,23
508,48	5969,37
508,69	6087,15
508,90	6023,60
509,10	6150,86
509,31	6384,69
509,52	6353,25
509,72	6381,31
509,93	6445,64
510,14	6885,37
510,35	6948,27
510,55	6829,13
510,76	7032,11
510,97	7002,98
511,17	6895,41
511,38	6979,84
511,59	7038,58
511,80	7031,65
512,00	6743,41
512,21	6656,32
512,42	6597,16
512,62	6524,83
512,83	6587,08
513,04	6627,13
513,25	6516,57
513,45	6413,56
513,66	6513,97
513,87	6438,10
514,07	6404,19
514,28	6478,12
514,49	6507,11
514,69	6540,72
514,90	6430,20
515,11	6584,38
515,31	6714,22
515,52	6689,58
515,73	6614,00
515,93	6884,52
516,14	6934,19
516,35	6741,52
516,55	6537,83
516,76	6658,34
516,97	6634,35
517,17	6687,17
517,38	6681,09
517,59	6699,33
517,79	6423,93
518,00	6327,64
518,21	6579,70
518,41	6639,94
518,62	6515,76
518,83	6383,91
519,03	6205,09
519,24	6244,29
519,45	6206,52
519,65	6156,78
519,86	6148,49
520,07	5960,30
520,27	5984,78
520,48	6140,04
520,69	6292,73
520,89	6250,95
521,10	6204,99
521,31	6211,98
521,51	6175,24
521,72	6256,67
521,93	6240,58
522,13	6236,13
522,34	6251,80
522,54	6171,73
522,75	6299,36
522,96	6291,39
523,16	6333,03
523,37	6375,98
523,58	6283,66
523,78	6418,01
523,99	6365,96
524,19	6372,21
524,40	6359,50
524,61	6243,57
524,81	6135,19
525,02	6222,61
525,23	6222,18
525,43	6304,92
525,64	6150,80
525,84	6315,48
526,05	6173,52
526,26	6246,89
526,46	6399,32
526,67	6546,84
526,87	6446,91
527,08	6500,87
527,29	6385,86
527,49	6612,63
527,70	6470,09
527,91	6420,06
528,11	6332,29
528,32	6354,00
528,52	6328,26
528,73	6390,02
528,93	6347,47
529,14	6399,54
529,35	6213,08
529,55	6228,36
529,76	6287,00
529,96	6438,62
530,17	6249,49
530,38	6210,90
530,58	6363,43
530,79	6477,89
530,99	6541,37
531,20	6478,93
531,41	6440,50
531,61	6467,23
531,82	6288,53
532,02	6400,36
532,23	6288,86
532,43	6111,20
532,64	6147,22
532,85	6156,10
533,05	6216,04
533,26	6246,63
533,46	6179,08
533,67	6228,75
533,87	6268,12
534,08	6364,53
534,28	6396,52
534,49	6200,27
534,70	6017,52
534,90	6120,79
535,11	6046,29
535,31	6063,81
535,52	6140,01
535,72	5982,38
535,93	6094,49
536,13	5995,77
536,34	5984,03
536,54	6112,54
536,75	5941,38
536,96	5967,59
537,16	5957,05
537,37	5930,36
537,57	5923,73
537,78	5754,89
537,98	5898,02
538,19	5944,28
538,39	5844,06
538,60	6146,64
538,80	6218,32
539,01	6505,06
539,21	6677,97
539,42	6661,46
539,62	6780,56
539,83	6584,97
540,04	6747,93
540,24	6935,04
540,45	6783,07
540,65	6881,83
540,86	6581,59
541,06	6281,97
541,27	6256,38
541,47	6199,92
541,68	6375,36
541,88	6250,14
542,09	6136,98
542,29	6132,20
542,50	6015,66
542,70	6097,62
542,91	6396,26
543,11	6491,51
543,32	6486,50
543,52	6477,04
543,73	6353,90
543,93	6317,79
544,14	6348,41
544,34	6237,33
544,55	6235,41
544,75	6027,04
544,96	6150,64
545,16	6091,11
545,37	6070,28
545,57	6210,51
545,78	6195,63
545,98	6040,08
546,18	6117,74
546,39	6106,20
546,59	6136,40
546,80	6065,63
547,00	6278,42
547,21	6183,89
547,41	6195,33
547,62	6155,35
547,82	6244,68
548,03	6288,04
548,23	6150,93
548,44	6349,29
548,64	6189,97
548,85	6183,21
549,05	6284,92
549,26	6178,82
549,46	6264,70
549,66	6232,03
549,87	6206,42
550,07	6269,61
550,28	6062,38
550,48	6191,82
550,69	5935,40
550,89	5866,13
551,10	5952,40
551,30	5972,53
551,50	5948,47
551,71	5855,63
551,91	5843,47
552,12	5768,02
552,32	5675,18
552,53	5706,91
552,73	5745,33
552,94	6006,24
553,14	6034,81
553,34	5992,00
553,55	5981,24
553,75	6002,21
553,96	5972,85
554,16	5961,21
554,37	6048,95
554,57	6132,40
554,77	5816,36
554,98	5742,76
555,18	5740,26
555,39	5897,86
555,59	5903,35
555,79	5923,99
556,00	5895,94
556,20	5751,80
556,41	5653,82
556,61	5725,73
556,82	5585,23
557,02	5650,74
557,22	5534,16
557,43	5560,85
557,63	5580,55
557,84	5713,87
558,04	5911,06
558,24	5844,16
558,45	5670,70
558,65	5820,75
558,86	5812,07
559,06	5785,80
559,26	5792,83
559,47	5777,68
559,67	5630,68
559,87	5591,44
560,08	5685,94
560,28	5700,96
560,49	5757,43
560,69	5725,86
560,89	5786,55
561,10	5756,68
561,30	5681,65
561,51	5662,57
561,71	5684,74
561,91	6707,03
562,12	6817,23
562,32	6710,90
562,52	6648,52
562,73	6755,18
562,93	6812,13
563,13	6806,54
563,34	6895,48
563,54	6982,08
563,75	6184,90
563,95	6083,64
564,15	6016,57
564,36	6073,50
564,56	5876,11
564,76	5744,78
564,97	5807,23
565,17	5752,19
565,37	5760,77
565,58	5394,71
565,78	5465,61
565,98	5720,66
566,19	5691,05
566,39	5706,94
566,59	5642,84
566,80	5674,17
567,00	5803,78
567,20	5580,16
567,41	5631,00
567,61	5607,73
567,81	5382,65
568,02	5387,78
568,22	5432,90
568,42	5618,16
568,63	5574,05
568,83	5521,62
569,03	5596,09
569,24	5569,99
569,44	5735,26
569,64	5982,21
569,85	6032,05
570,05	6121,25
570,25	5995,35
570,46	5997,75
570,66	6077,40
570,86	6002,40
571,07	5913,43
571,27	5936,80
571,47	5744,00
571,68	5651,71
571,88	5633,51
572,08	5679,08
572,28	5690,17
572,49	5517,49
572,69	5549,70
572,89	5820,00
573,10	5697,35
573,30	5711,00
573,50	5754,69
573,71	5582,02
573,91	5492,72
574,11	5552,34
574,31	5518,85
574,52	5495,09
574,72	5450,91
574,92	5371,30
575,13	5345,72
575,33	5474,51
575,53	5559,85
575,73	5643,58
575,94	5638,51
576,14	5666,57
576,34	5661,85
576,55	5580,32
576,75	5624,79
576,95	5564,17
577,15	5443,31
577,36	5342,44
577,56	5333,69
577,76	5320,46
577,96	5335,64
578,17	5379,17
578,37	5346,86
578,57	5373,41
578,77	5420,65
578,98	5450,23
579,18	5789,25
579,38	5696,80
579,58	5656,36
579,79	5757,04
579,99	5682,33
580,19	5621,09
580,39	5455,50
580,60	5375,76
580,80	5470,58
581,00	5271,02
581,20	5291,33
581,41	5270,11
581,61	5124,77
581,81	5306,77
582,01	5288,73
582,22	5326,96
582,42	5555,26
582,62	5422,40
582,82	5475,91
583,03	5560,79
583,23	5615,66
583,43	5615,37
583,63	5355,50
583,83	5403,32
584,04	5489,89
584,24	5271,02
584,44	5374,72
584,64	5246,73
584,85	5438,40
585,05	5372,86
585,25	5417,53
585,45	5625,41
585,65	5662,37
585,86	5642,35
586,06	5753,62
586,26	5675,12
586,46	5644,98
586,66	5358,04
586,87	5511,54
587,07	5567,06
587,27	5431,67
587,47	5426,11
587,67	5462,42
587,88	5322,41
588,08	5385,70
588,28	5594,30
588,48	5612,60
588,68	5450,43
588,89	5325,47
589,09	5390,84
589,29	5333,17
589,49	5242,64
589,69	5288,34
589,89	5368,31
590,10	5157,24
590,30	5368,08
590,50	5364,57
590,70	5559,23
590,90	5536,86
591,11	5555,52
591,31	5649,76
591,51	5764,12
591,71	5557,70
591,91	5703,43
592,11	5475,26
592,32	5503,70
592,52	5380,31
592,72	5374,10
592,92	5376,80
593,12	5264,68
593,32	5069,76
593,52	5123,47
593,73	4987,23
593,93	5034,56
594,13	4944,28
594,33	4954,26
594,53	5007,58
594,73	5039,21
594,94	5048,57
595,14	5112,54
595,34	5172,19
595,54	5207,40
595,74	5218,97
595,94	5228,33
596,14	5359,40
596,35	5317,76
596,55	5311,29
596,75	5352,90
596,95	5250,54
597,15	5151,29
597,35	5153,60
597,55	5313,76
597,75	5381,54
597,96	5392,53
598,16	5306,09
598,36	5286,29
598,56	5491,90
598,76	5617,22
598,96	5680,45
599,16	5719,23
599,36	5525,68
599,56	5559,85
599,77	5411,48
599,97	5564,79
600,17	5579,35
600,37	5204,67
600,57	5178,92
600,77	5064,59
600,97	5000,46
601,17	5037,65
601,37	4898,38
601,58	5194,59
601,78	5121,71
601,98	5124,99
602,18	5215,04
602,38	5182,99
602,58	5414,86
602,78	5408,95
602,98	5365,84
603,18	5351,86
603,38	5062,06
603,58	4964,02
603,79	5009,07
603,99	5065,54
604,19	5153,21
604,39	4947,70
604,59	4981,90
604,79	5143,94
604,99	5315,91
605,19	5369,25
605,39	5424,55
605,59	5248,39
605,79	5283,24
605,99	5228,79
606,19	5382,48
606,40	5311,13
606,60	5153,86
606,80	5148,14
607,00	5135,01
607,20	5099,15
607,40	5120,47
607,60	5159,13
607,80	5162,05
608,00	4990,35
608,20	5006,31
608,40	5012,55
608,60	4900,01
608,80	4902,38
609,00	4981,21
609,20	5080,59
609,40	4987,75
609,60	5014,73
609,80	5222,94
610,00	5293,80
610,20	5230,25
610,41	5336,88
610,61	5221,15
610,81	5068,01
611,01	5136,08
611,21	5445,39
611,41	5608,90
611,61	5431,31
611,81	5381,31
612,01	5359,08
612,21	5484,07
612,41	5572,69
612,61	5628,86
612,81	5566,74
613,01	5346,99
613,21	5054,00
613,41	4985,60
613,61	5049,61
613,81	5098,99
614,01	4864,67
614,21	4745,34
614,41	4713,29
614,61	4632,67
614,81	4616,35
615,01	4751,52
615,21	4831,81
615,41	4895,39
615,61	5050,06
615,81	5017,78
616,01	5277,36
616,21	5284,83
616,41	5384,86
616,61	5304,24
616,81	5413,59
617,01	5366,85
617,21	5242,77
617,41	5130,52
617,61	5175,35
617,81	4981,08
618,01	5329,24
618,21	5273,32
618,41	5141,57
618,61	4992,40
618,81	5046,65
619,01	5169,37
619,21	5182,89
619,41	5315,23
619,61	5286,33
619,81	5102,50
620,01	5064,20
620,21	5180,32
620,41	5185,85
620,61	5184,16
620,80	5131,10
621,00	5199,34
621,20	5012,65
621,40	4921,20
621,60	4847,05
621,80	4843,87
622,00	4853,95
622,20	4795,40
622,40	4776,45
622,60	4600,58
622,80	4483,43
623,00	4509,63
623,20	4637,90
623,40	4631,95
623,60	4655,23
623,80	4634,68
624,00	4726,39
624,20	4746,35
624,40	4904,85
624,59	4966,10
624,79	4990,09
624,99	4976,11
625,19	4917,76
625,39	4847,83
625,59	4943,70
625,79	4895,43
625,99	4835,45
626,19	4763,54
626,39	4799,24
626,59	4827,48
626,79	4766,44
626,99	4860,51
627,19	4968,99
627,38	4812,86
627,58	4790,78
627,78	4775,64
627,98	4760,71
628,18	4610,50
628,38	4496,88
628,58	4562,74
628,78	4549,38
628,98	4526,04
629,18	4617,36
629,38	4752,23
629,57	4876,08
629,77	4890,29
629,97	4843,35
630,17	5312,37
630,37	5387,20
630,57	5355,41
630,77	5507,96
630,97	5417,46
631,17	5260,71
631,36	5129,67
631,56	5359,53
631,76	5410,60
631,96	5044,18
632,16	5043,17
632,36	5029,23
632,56	4965,19
632,76	5129,61
632,96	5227,00
633,15	5258,01
633,35	4987,32
633,55	5147,13
633,75	5092,71
633,95	4984,46
634,15	4928,39
634,35	4791,56
634,54	4775,31
634,74	4735,33
634,94	4694,07
635,14	4715,04
635,34	4705,29
635,54	4781,62
635,74	4799,76
635,93	4719,92
636,13	4867,27
636,33	4806,65
636,53	4780,64
636,73	4815,98
636,93	4889,28
637,13	4789,26
637,32	4633,51
637,52	4731,33
637,72	4913,08
637,92	4761,27
638,12	4659,19
638,32	4731,95
638,51	4778,14
638,71	4741,24
638,91	4723,72
639,11	4875,11
639,31	4781,00
639,51	4772,29
639,70	4804,01
639,90	4798,49
640,10	4662,31
640,30	4640,63
640,50	4664,85
640,70	4625,22
640,89	4570,84
641,09	4562,91
641,29	4590,99
641,49	4562,48
641,69	4598,41
641,88	4908,56
642,08	4939,31
642,28	4814,71
642,48	4929,95
642,68	4894,09
642,87	4958,82
643,07	4858,98
643,27	4987,10
643,47	5013,17
643,67	4777,26
643,86	5657,89
644,06	5685,62
644,26	5609,68
644,46	5654,47
644,66	5721,70
644,85	5738,28
645,05	5577,50
645,25	5615,17
645,45	5637,15
645,65	4851,67
645,84	4969,67
646,04	4897,57
646,24	4946,82
646,44	4759,02
646,63	4749,86
646,83	4840,62
647,03	4795,82
647,23	4822,41
647,43	4614,30
647,62	4468,64
647,82	4602,01
648,02	4499,26
648,22	4622,20
648,41	4718,29
648,61	4593,63
648,81	4509,69
649,01	4434,54
649,20	4485,57
649,40	4514,18
649,60	4510,83
649,80	4468,93
649,99	4447,08
650,19	4333,92
650,39	4413,50
650,59	4433,17
650,78	4448,35
650,98	4496,75
651,18	4610,47
651,38	4493,47
651,57	4609,72
651,77	4598,14
651,97	4597,92
652,17	4571,07
652,36	4726,55
652,56	4725,96
652,76	4793,38
652,95	4645,28
653,15	4748,17
653,35	4768,61
653,55	4715,01
653,74	4636,93
653,94	4804,83
654,14	4754,80
654,34	4733,86
654,53	4677,40
654,73	4708,05
654,93	4614,66
655,12	4594,08
655,32	4630,20
655,52	4743,23
655,72	4631,95
655,91	4544,54
656,11	4472,67
656,31	4347,81
656,50	4330,06
656,70	4243,20
656,90	4148,96
657,09	4301,03
657,29	4253,89
657,49	4230,49
657,69	4545,52
657,88	4594,44
658,08	4627,17
658,28	4673,92
658,47	4988,07
658,67	5029,78
658,87	4844,13
659,06	4957,32
659,26	4918,96
659,46	4595,06
659,65	4986,32
659,85	5014,60
660,05	5190,92
660,24	5007,19
660,44	5112,02
660,64	5234,02
660,83	5335,80
661,03	5365,35
661,23	5582,34
661,42	5212,21
661,62	5109,42
661,82	4870,26
662,01	4817,41
662,21	4771,05
662,41	4846,18
662,60	4640,99
662,80	4623,92
663,00	4433,14
663,19	4421,04
663,39	4574,74
663,59	4672,78
663,78	4777,36
663,98	4722,75
664,18	4437,43
664,37	4548,05
664,57	4574,71
664,77	4498,31
664,96	4554,55
665,16	4581,44
665,35	4702,01
665,55	4571,16
665,75	4586,41
665,94	6386,51
666,14	6198,23
666,34	6316,88
666,53	6403,77
666,73	6330,24
666,93	6290,06
667,12	6067,16
667,32	6051,00
667,51	5913,30
667,71	4291,08
667,91	4307,59
668,10	4253,47
668,30	4138,94
668,49	4229,71
668,69	4139,69
668,89	4148,99
669,08	4236,69
669,28	4393,51
669,48	4468,57
669,67	4619,24
669,87	4510,15
670,06	4659,23
670,26	4695,28
670,46	4713,61
670,65	4779,50
670,85	4666,93
671,04	4658,22
671,24	4463,43
671,44	4278,69
671,63	4321,83
671,83	4293,62
672,02	4297,19
672,22	4382,26
672,41	4317,05
672,61	4389,80
672,81	4544,09
673,00	4602,01
673,20	4740,66
673,39	4636,47
673,59	4803,01
673,79	4868,80
673,98	4795,63
674,18	4813,83
674,37	4813,28
674,57	4813,38
674,76	4764,68
674,96	4623,24
675,15	4684,87
675,35	4665,24
675,55	4629,74
675,74	4768,61
675,94	4902,97
676,13	4961,29
676,33	4762,24
676,52	5078,60
676,72	5222,06
676,92	5190,98
677,11	5164,94
677,31	5000,10
677,50	5096,84
677,70	5175,41
677,89	5187,73
678,09	5233,96
678,28	4994,57
678,48	5007,74
678,67	5148,50
678,87	4999,06
679,06	5096,22
679,26	4815,75
679,46	4683,15
679,65	4630,81
679,85	4679,28
680,04	4746,87
680,24	4649,80
680,43	4621,39
680,63	4659,36
680,82	4615,80
681,02	4611,12
681,21	4530,20
681,41	4512,00
681,60	4352,00
681,80	4227,95
681,99	4239,00
682,19	4215,17
682,38	4217,19
682,58	4146,94
682,77	4262,38
682,97	4274,63
683,16	4294,62
683,36	4557,67
683,55	4754,90
683,75	4752,00
683,94	4638,19
684,14	4779,70
684,33	4925,49
684,53	4817,60
684,72	4851,83
684,92	4869,16
685,11	4712,02
685,31	4594,96
685,50	4611,54
685,70	4632,05
685,89	4464,28
686,09	4275,93
686,28	4382,04
686,48	4311,43
686,67	4331,81
686,87	4252,36
687,06	4085,93
687,26	4122,66
687,45	4121,81
687,65	4134,00
687,84	4211,83
688,03	4150,00
688,23	4214,56
688,42	4213,48
688,62	4271,93
688,81	4411,32
689,01	4395,98
689,20	4432,23
689,40	4426,12
689,59	4371,89
689,79	4431,54
689,98	4527,31
690,17	4538,27
690,37	4536,77
690,56	4446,47
690,76	4333,11
690,95	4355,12
691,15	4305,61
691,34	4483,59
691,54	4551,17
691,73	4447,67
691,92	4436,55
692,12	4518,34
692,31	4559,95
692,51	5128,15
692,70	5071,78
692,90	5153,63
693,09	5182,04
693,28	5153,01
693,48	5102,79
693,67	5067,19
693,87	4892,24
694,06	4830,09
694,26	4354,44
694,45	4321,73
694,64	4384,93
694,84	4235,30
695,03	4114,60
695,23	4325,96
695,42	4407,52
695,61	4499,94
695,81	4574,61
696,00	4728,89
696,20	4788,25
696,39	4755,42
696,59	4880,67
696,78	4942,33
696,97	4733,18
697,17	4572,63
697,36	4783,21
697,55	4810,22
697,75	4734,81
697,94	4729,96
698,14	4621,97
698,33	4552,83
698,52	4665,34
698,72	4846,14
698,91	4853,13
699,11	4596,45
699,30	4658,74
699,49	4547,21
699,69	4543,37
699,88	4574,12
700,07	4565,08
700,27	4488,24
700,46	4294,33
700,66	4372,06
700,85	4312,37
701,04	4120,32
701,24	4138,98
701,43	4145,38
701,62	4085,28
701,82	4080,43
702,01	4012,69
702,20	4432,00
702,40	4432,26
702,59	4539,24
702,79	4795,92
702,98	4971,82
703,17	5145,67
703,37	5446,00
703,56	5439,14
703,75	5424,91
703,95	4976,30
704,14	4973,12
704,33	4906,84
704,53	4659,97
704,72	4498,61
704,91	4258,05
705,11	4131,99
705,30	4229,93
705,49	4358,79
705,69	4346,63
705,88	4297,55
706,07	4371,57
706,27	4522,37
706,46	4543,17
706,65	4625,03
706,85	4498,38
707,04	4488,79
707,23	4330,80
707,43	4404,11
707,62	4408,98
707,81	4408,33
708,01	4327,23
708,20	4242,97
708,39	4241,73
708,58	4234,52
708,78	4166,74
708,97	4230,58
709,16	4176,91
709,36	4143,14
709,55	4133,32
709,74	4158,97
709,94	4419,42
710,13	4403,56
710,32	4390,58
710,51	4462,04
710,71	4478,71
710,90	4524,42
711,09	4608,19
711,29	4836,75
711,48	4908,27
711,67	4692,35
711,86	4721,80
712,06	4780,87
712,25	4735,81
712,44	4660,53
712,64	4650,64
712,83	4604,58
713,02	4407,62
713,21	4413,67
713,41	4382,98
713,60	4415,06
713,79	4355,74
713,98	4214,26
714,18	4428,42
714,37	4581,66
714,56	4642,91
714,76	4673,72
714,95	4520,19
715,14	4715,56
715,33	4717,97
715,53	4767,64
715,72	4757,37
715,91	4586,70
716,10	4566,32
716,30	4710,43
716,49	4687,54
716,68	4694,69
716,87	4568,82
717,07	4459,47
717,26	4510,76
717,45	4608,61
717,64	4670,38
717,83	4652,43
718,03	4639,53
718,22	4754,99
718,41	4789,78
718,60	4864,61
718,80	4975,20
718,99	4926,44
719,18	4837,76
719,37	4828,10
719,57	4684,65
719,76	4533,49
719,95	4386,33
720,14	4489,05
720,33	4612,22
720,53	4650,61
720,72	4664,82
720,91	4725,96
721,10	4654,77
721,29	4659,65
721,49	4601,59
721,68	4575,29
721,87	4411,23
722,06	4208,28
722,26	4110,89
722,45	4156,37
722,64	4182,34
722,83	4231,66
723,02	4291,79
723,21	4293,97
723,41	4378,23
723,60	4577,11
723,79	4619,18
723,98	4620,22
724,17	4628,28
724,37	4563,88
724,56	4567,91
724,75	4488,79
724,94	4535,31
725,13	4479,04
725,33	4269,82
725,52	4357,20
725,71	4404,08
725,90	4306,52
726,09	4346,08
726,28	4593,40
726,48	4596,58
726,67	4608,35
726,86	4650,84
727,05	4688,39
727,24	4663,39
727,43	4610,73
727,63	4714,10
727,82	4856,84
728,01	4542,23
728,20	4577,57
728,39	4563,46
728,58	4531,34
728,77	4817,99
728,97	4636,37
729,16	4771,05
729,35	4782,92
729,54	4620,84
729,73	4584,85
729,92	4723,10
730,11	4678,99
730,31	4664,59
730,50	4401,93
730,69	4589,69
730,88	4466,00
731,07	4484,79
731,26	4562,19
731,45	4600,91
731,65	4426,80
731,84	4544,35
732,03	4451,34
732,22	4495,32
732,41	4278,95
732,60	4428,55
732,79	4346,57
732,98	4410,06
733,17	4365,36
733,37	4491,29
733,56	4350,50
733,75	4358,53
733,94	4224,47
734,13	4236,08
734,32	4045,39
734,51	3953,59
734,70	3948,48
734,89	4183,87
735,09	4059,56
735,28	4084,33
735,47	4141,90
735,66	4149,44
735,85	4146,10
736,04	4230,49
736,23	4188,29
736,42	4105,82
736,61	4027,35
736,80	3996,27
736,99	3993,90
737,19	3964,35
737,38	4055,17
737,57	4183,06
737,76	4116,06
737,95	4368,58
738,14	4297,91
738,33	4226,29
738,52	4244,04
738,71	4247,68
738,90	4251,75
739,09	4266,02
739,28	4244,76
739,47	4243,49
739,66	4096,39
739,86	4121,00
740,05	4219,76
740,24	4430,15
740,43	4396,96
740,62	4488,82
740,81	4452,64
741,00	4453,91
741,19	4408,56
741,38	4606,53
741,57	4604,06
741,76	4537,26
741,95	4445,56
742,14	4639,95
742,33	4584,88
742,52	4556,47
742,71	4448,03
742,90	4484,47
743,09	4358,08
743,28	4360,16
743,47	4297,87
743,66	4491,65
743,86	4356,32
744,05	4321,41
744,24	4285,59
744,43	4360,48
744,62	4415,45
744,81	4402,19
745,00	4365,72
745,19	4376,31
745,38	4143,85
745,57	4161,70
745,76	4177,63
745,95	4393,22
746,14	4364,03
746,33	4461,97
746,52	4365,39
746,71	4435,93
746,90	4406,32
747,09	4458,33
747,28	4430,54
747,47	4529,20
747,66	4602,21
747,85	4625,22
748,04	4435,06
748,23	4429,76
748,42	4326,61
748,61	4338,15
748,80	4268,97
748,99	4325,05
749,18	4290,98
749,37	4075,52
749,56	4088,10
749,75	4079,36
749,94	4083,71
750,13	4078,09
750,32	4110,53
750,51	4100,62
750,70	4087,19
750,89	4144,60
751,07	4084,98
751,26	4485,99
751,45	4607,96
751,64	4558,39
751,83	4609,52
752,02	5094,89
752,21	5141,34
752,40	5056,95
752,59	4879,92
752,78	4837,01
752,97	4499,42
753,16	4478,42
753,35	4580,88
753,54	4660,04
753,73	4227,72
753,92	4133,74
754,11	4197,10
754,30	4255,68
754,49	4341,63
754,68	4229,67
754,87	4323,75
755,06	4241,93
755,24	4156,40
755,43	4037,81
755,62	4044,19
755,81	3981,93
756,00	4061,25
756,19	4061,71
756,38	4161,83
756,57	4028,03
756,76	4020,36
756,95	4262,18
757,14	4323,52
757,33	4308,44
757,52	4245,41
757,71	4220,70
757,89	4091,16
758,08	4016,81
758,27	4046,10
758,46	4140,96
758,65	4046,23
758,84	4135,43
759,03	4254,77
759,22	4364,38
759,41	4397,57
759,60	4522,50
759,79	4469,06
759,97	4477,61
760,16	4453,75
760,35	4343,45
760,54	4225,58
760,73	4238,35
760,92	4364,74
761,11	4582,70
761,30	4494,32
761,49	4614,98
761,67	4521,88
761,86	4570,55
762,05	4485,96
762,24	4559,59
762,43	4563,52
762,62	4448,97
762,81	4148,14
763,00	4257,89
763,18	4134,23
763,37	4244,85
763,56	4052,48
763,75	4161,11
763,94	4057,16
764,13	4030,34
764,32	4091,68
764,51	4135,50
764,69	4167,75
764,88	4380,38
765,07	4523,74
765,26	4623,27
765,45	4687,87
765,64	4717,12
765,83	4732,14
766,01	4771,47
766,20	4698,76
766,39	4693,78
766,58	4551,50
766,77	4468,64
766,96	4587,42
767,14	4476,31
767,33	4425,21
767,52	4413,05
767,71	4315,88
767,90	4219,30
768,09	4111,28
768,27	4205,16
768,46	4191,18
768,65	4313,93
768,84	4295,24
769,03	4456,05
769,22	4397,80
769,40	4385,90
769,59	4568,86
769,78	4611,12
769,97	4624,12
770,16	4499,39
770,34	4417,11
770,53	4704,96
770,72	4600,65
770,91	4542,59
771,10	4473,15
771,29	4490,94
771,47	4428,81
771,66	4384,60
771,85	4379,82
772,04	4339,74
772,23	4074,19
772,41	4091,78
772,60	4081,93
772,79	4174,80
772,98	4078,84
773,17	4127,27
773,35	4062,42
773,54	4175,35
773,73	4136,80
773,92	4345,20
774,10	4280,58
774,29	4370,56
774,48	4407,29
774,67	4452,25
774,86	4607,08
775,04	4760,23
775,23	4664,36
775,42	4548,47
775,61	4475,92
775,79	4646,29
775,98	4610,89
776,17	4612,51
776,36	4680,23
776,54	4741,18
776,73	4618,10
776,92	4673,53
777,11	4923,84
777,30	4770,40
777,48	4567,85
777,67	4600,39
777,86	4585,50
778,05	4526,14
778,23	4344,88
778,42	4299,82
778,61	4344,88
778,80	4156,92
778,98	4127,34
779,17	4145,15
779,36	4166,97
779,54	4213,03
779,73	4086,64
779,92	4112,97
780,11	4156,92
780,29	4046,95
780,48	4152,34
780,67	4214,00
780,86	4283,73
781,04	4141,45
781,23	3950,63
781,42	3931,12
781,60	3845,60
781,79	3787,80
781,98	3742,91
782,17	3626,60
782,35	3668,79
782,54	3756,27
782,73	3809,55
782,91	3986,13
783,10	4234,87
783,29	4315,79
783,48	4455,73
783,66	4543,21
783,85	4554,19
784,04	4457,78
784,22	4363,02
784,41	4395,14
784,60	4456,35
784,79	4390,58
784,97	4463,40
785,16	4237,38
785,35	4269,72
785,53	4356,94
785,72	4396,63
785,91	4312,27
786,09	4335,84
786,28	4182,86
786,47	3986,22
786,65	3913,67
786,84	4088,56
787,03	4036,55
787,21	4026,79
787,40	4057,61
787,59	4132,41
787,77	4192,81
787,96	4303,69
788,15	4358,89
788,33	4341,47
788,52	4249,73
788,71	4371,47
788,89	4395,14
789,08	4514,15
789,27	4513,95
789,45	4389,58
789,64	4262,60
789,83	4264,68
790,01	4455,86
790,20	4499,97
790,39	4369,16
790,57	4423,68
790,76	4356,61
790,95	4457,49
791,13	4550,98
791,32	4665,47
791,50	4646,42
791,69	4442,99
791,88	4382,46
792,06	4428,46
792,25	4283,21
792,44	4301,32
792,62	4127,76
792,81	4122,37
792,99	4016,72
793,18	4121,65
793,37	4186,02
793,55	4208,48
793,74	4245,89
793,93	4334,96
794,11	4256,52
794,30	4420,39
794,48	4357,88
794,67	4348,94
794,86	5647,10
795,04	5601,13
795,23	5586,76
795,41	5494,80
795,60	5391,75
795,79	5371,43
795,97	5264,03
796,16	5323,26
796,34	5404,23
796,53	4470,62
796,72	4496,98
796,90	4499,81
797,09	4823,49
797,27	4848,91
797,46	4886,94
797,65	4988,43
797,83	4999,71
798,02	4948,87
798,20	4614,01
798,39	4579,29
798,58	4581,50
798,76	4207,18
798,95	4299,11
799,13	4276,32
799,32	4332,36
799,50	4374,17
799,69	4335,84
799,88	4254,80
800,06	4347,12
800,25	4409,21
800,43	4490,90
800,62	4364,64
800,80	4426,77
800,99	4428,75
801,17	4324,30
801,36	4261,37
801,55	4341,24
801,73	4153,48
801,92	4206,95
802,10	4172,66
802,29	4376,83
802,47	4471,59
802,66	4240,30
802,84	4238,03
803,03	4300,54
803,21	4287,28
803,40	4508,39
803,59	4545,19
803,77	4550,88
803,96	4430,63
804,14	4426,93
804,33	4689,65
804,51	4628,73
804,70	4662,51
804,88	4565,57
805,07	4639,30
805,25	4484,11
805,44	4391,01
805,62	4325,77
805,81	4141,77
805,99	3994,25
806,18	4094,83
806,36	4146,65
806,55	4142,26
806,73	3921,24
806,92	4012,33
807,10	4010,51
807,29	4351,93
807,47	4456,35
807,66	4400,21
807,84	4401,47
808,03	4378,36
808,21	4625,29
808,40	4676,20
808,58	4833,08
808,77	5023,05
808,95	4996,56
809,14	4990,48
809,32	5028,64
809,51	5017,17
809,69	5097,00
809,88	4967,40
810,06	4916,88
810,25	4636,18
810,43	4618,20
810,62	4347,97
810,80	4222,62
810,99	4487,62
811,17	4577,67
811,36	4409,21
811,54	4402,81
811,73	4423,42
811,91	4584,07
812,09	4655,03
812,28	4548,99
812,46	4646,97
812,65	4404,43
812,83	4285,68
813,02	4426,34
813,20	4302,62
813,39	4299,66
813,57	4190,76
813,76	4108,03
813,94	4105,62
814,12	4202,37
814,31	4100,16
814,49	4556,76
814,68	4462,72
814,86	4606,14
815,05	4561,96
815,23	4580,07
815,41	4558,65
815,60	4635,79
815,78	4473,77
815,97	4619,47
816,15	4202,17
816,34	4207,24
816,52	4047,37
816,70	4168,85
816,89	4206,07
817,07	4230,75
817,26	4233,87
817,44	4251,19
817,63	4345,98
817,81	4321,90
817,99	4368,90
818,18	4455,86
818,36	4465,16
818,55	4572,37
818,73	4633,48
818,91	4727,17
819,10	4690,40
819,28	4559,66
819,47	4612,16
819,65	4613,78
819,83	4657,99
820,02	4695,05
820,20	4635,85
820,39	4670,90
820,57	4593,50
820,75	4648,43
820,94	4681,92
821,12	4670,08
821,31	4635,82
821,49	4663,35
821,67	4527,67
821,86	4415,32
822,04	4331,58
822,22	4341,01
822,41	4371,05
822,59	4274,01
822,78	4263,29
822,96	4237,67
823,14	4143,11
823,33	4135,89
823,51	4296,87
823,69	4310,81
823,88	4266,89
824,06	4226,65
824,24	4235,91
824,43	4156,27
824,61	4199,86
824,80	4384,83
824,98	4437,20
825,16	4362,79
825,35	4172,17
825,53	4254,80
825,71	4231,01
825,90	4290,75
826,08	4303,24
826,26	4274,27
826,45	4172,88
826,63	4314,58
826,81	4414,12
827,00	4535,21
827,18	4489,38
827,36	4418,25
827,55	4524,97
827,73	4646,97
827,91	4640,53
828,10	4714,29
828,28	4529,13
828,46	4415,19
828,65	4281,85
828,83	4536,12
829,01	4574,48
829,20	4459,70
829,38	4543,21
829,56	4576,89
829,74	4631,50
829,93	4699,54
830,11	4751,16
830,29	5047,56
830,48	4958,88
830,66	4997,37
830,84	5058,55
831,03	5156,30
831,21	5118,26
831,39	5034,59
831,57	4972,34
831,76	4857,65
831,94	4637,64
832,12	4409,37
832,31	4482,00
832,49	4401,93
832,67	4137,58
832,85	4155,36
833,04	4053,52
833,22	4018,47
833,40	4073,12
833,59	4105,33
833,77	4082,84
833,95	4175,91
834,13	4212,09
834,32	4188,10
834,50	4212,96
834,68	4176,07
834,86	4266,28
835,05	4273,79
835,23	4184,07
835,41	4228,60
835,59	4023,77
835,78	3877,52
835,96	3955,31
836,14	3996,01
836,33	4081,31
836,51	4017,92
836,69	3959,15
836,87	4261,82
837,05	4284,94
837,24	4484,34
837,42	4776,77
837,60	4748,72
837,78	4705,84
837,97	4647,07
838,15	4693,07
838,33	4625,65
838,51	4353,01
838,70	4502,61
838,88	4327,85
839,06	4184,03
839,24	4222,75
839,43	4241,44
839,61	4357,46
839,79	4319,07
839,97	4736,98
840,15	4887,62
840,34	4714,81
840,52	4710,56
840,70	4652,79
840,88	4601,59
841,06	4564,40
841,25	4465,29
841,43	4553,84
841,61	4119,93
841,79	4003,94
841,98	4008,46
842,16	3984,08
842,34	4066,32
842,52	4078,51
842,70	4047,57
842,88	4018,21
843,07	3964,44
843,25	4139,43
843,43	4192,71
843,61	4135,50
843,79	4243,00
843,98	4332,43
844,16	4303,66
844,34	4379,66
844,52	4503,45
844,70	4552,54
844,89	4504,91
845,07	4622,82
845,25	4770,92
845,43	4720,73
845,61	4611,15
845,79	4619,73
845,98	4662,31
846,16	4548,38
846,34	4584,36
846,52	4531,08
846,70	4385,97
846,88	4229,28
847,06	4259,64
847,25	4308,44
847,43	4354,66
847,61	4435,87
847,79	4528,87
847,97	4434,08
848,15	4593,46
848,34	4549,51
848,52	4589,43
848,70	4858,17
848,88	4814,90
849,06	4801,58
849,24	4559,33
849,42	4554,26
849,61	4564,47
849,79	4308,34
849,97	4352,32
850,15	4460,22
850,33	4244,27
850,51	4178,31
850,69	4248,62
850,87	4287,67
851,06	4225,61
851,24	4249,15
851,42	4347,16
851,60	4495,13
851,78	4505,56
851,96	4490,81
852,14	4486,84
852,32	4468,93
852,50	4505,69
852,69	4532,67
852,87	4467,69
853,05	4494,87
853,23	4392,28
853,41	4299,69
853,59	4202,24
853,77	4300,38
853,95	4219,86
854,13	4339,81
854,31	4343,32
854,50	4419,81
854,68	4553,15
854,86	4498,61
855,04	4652,92
855,22	4641,64
855,40	4662,74
855,58	4664,07
855,76	4710,10
855,94	4717,35
856,12	4945,52
856,30	4781,84
856,48	4806,49
856,66	4838,77
856,85	4869,26
857,03	4819,72
857,21	4809,54
857,39	4605,62
857,57	4518,60
857,75	4308,70
857,93	4337,47
858,11	4290,33
858,29	4115,73
858,47	4057,97
858,65	3952,61
858,83	4117,65
859,01	4336,36
859,19	4383,86
859,37	4312,01
859,55	4406,77
859,73	4677,33
859,91	4645,83
860,10	4736,04
860,28	4792,77
860,46	4827,71
860,64	4636,76
860,82	4638,49
861,00	4611,93
861,18	4630,36
861,36	4368,22
861,54	4419,35
861,72	4441,91
861,90	4703,08
862,08	4624,22
862,26	4688,94
862,44	4730,00
862,62	4899,52
862,80	4787,57
862,98	4886,19
863,16	4822,54
863,34	5123,01
863,52	4913,27
863,70	4892,21
863,88	4799,82
864,06	4754,67
864,24	4612,45
864,42	4585,24
864,60	4436,23
864,78	4565,83
864,96	4255,09
865,14	4228,15
865,32	4096,36
865,50	4138,13
865,68	4137,61
865,86	4159,36
866,04	4151,56
866,22	4260,98
866,40	4136,02
866,58	4139,92
866,76	4069,77
866,94	4062,58
867,12	4178,80
867,30	4131,14
867,48	4242,74
867,66	4210,82
867,84	4110,60
868,02	4091,09
868,20	4041,85
868,38	4045,52
868,56	4146,32
868,73	4084,66
868,91	4055,27
869,09	3848,85
869,27	3947,51
869,45	4142,26
869,63	4225,67
869,81	4230,78
869,99	4265,56
870,17	4252,72
870,35	4200,64
870,53	4300,21
870,71	4339,29
870,89	4341,76
871,07	4355,25
871,25	4367,63
871,43	4234,39
871,61	4236,69
871,79	4204,54
871,97	4282,69
872,14	4226,00
872,32	4314,09
872,50	4228,73
872,68	4038,01
872,86	3943,48
873,04	4285,49
873,22	4221,90
873,40	4298,04
873,58	4396,44
873,76	4528,06
873,94	4516,78
874,12	4633,55
874,29	4784,48
874,47	4837,30
874,65	4734,25
874,83	4776,12
875,01	4678,76
875,19	4531,44
875,37	4459,34
875,55	4443,60
875,73	4425,08
875,91	8281,37
876,08	8181,93
876,26	8115,06
876,44	8274,64
876,62	8471,50
876,80	8450,67
876,98	8352,23
877,16	8309,10
877,34	8342,35
877,52	4318,74
877,69	4436,55
877,87	4491,26
878,05	4355,87
878,23	4137,74
878,41	4344,78
878,59	4431,77
878,77	4550,91
878,95	4390,75
879,12	4518,53
879,30	4463,86
879,48	4447,51
879,66	4369,75
879,84	4455,96
880,02	4231,62
880,20	4211,70
880,37	4261,34
880,55	4318,35
880,73	4253,53
880,91	4282,79
881,09	4347,87
881,27	4357,26
881,45	4371,63
881,62	4360,97
881,80	4434,40
881,98	4464,54
882,16	5681,55
882,34	5700,02
882,52	5663,58
882,69	5642,54
882,87	5732,23
883,05	5691,24
883,23	5800,47
883,41	5720,46
883,59	5581,66
883,76	4383,95
883,94	4555,63
884,12	4581,44
884,30	4557,77
884,48	4470,16
884,65	4441,72
884,83	4443,44
885,01	4532,41
885,19	4499,97
885,37	4638,45
885,55	4552,02
885,72	4517,59
885,90	4442,21
886,08	4526,56
886,26	4552,63
886,44	4444,87
886,61	4375,47
886,79	4288,54
886,97	4310,55
887,15	4262,67
887,32	4614,27
887,50	4698,72
887,68	4794,16
887,86	4754,05
888,04	4954,95
888,21	8238,13
888,39	8388,81
888,57	8383,70
888,75	8424,30
888,93	8181,02
889,10	8101,89
889,28	7878,28
889,46	7969,95
889,64	7956,68
889,81	4644,92
889,99	4567,13
890,17	4375,83
890,35	4287,86
890,52	4190,96
890,70	4613,55
890,88	4712,25
891,06	4672,33
891,23	4564,92
891,41	4597,33
891,59	4773,59
891,77	4725,02
891,94	4709,42
892,12	4851,87
892,30	4402,35
892,48	4395,66
892,65	4290,62
892,83	4224,18
893,01	4109,46
893,19	4060,76
893,36	4193,78
893,54	4124,54
893,72	3911,20
893,90	3964,67
894,07	4015,61
894,25	4053,42
894,43	4111,09
894,60	4235,56
894,78	4119,70
894,96	4071,82
895,14	4144,02
895,31	4239,62
895,49	4233,54
895,67	4333,24
895,84	4552,89
896,02	4499,91
896,20	4777,81
896,38	4694,79
896,55	4634,10
896,73	4600,13
896,91	4665,44
897,08	4657,67
897,26	4567,46
897,44	4407,33
897,61	4497,89
897,79	4273,14
897,97	4334,57
898,15	4530,63
898,32	4574,06
898,50	4537,13
898,68	4400,82
898,85	4393,74
899,03	4500,27
899,21	4376,15
899,38	4298,39
899,56	4319,98
899,74	4224,24
899,91	4250,15
900,09	4350,28
900,27	4429,92
900,44	4341,34
900,62	4394,91
900,80	4383,82
900,97	4378,91
901,15	4342,99
901,33	4264,88
901,50	4436,26
901,68	4348,26
901,86	4540,31
902,03	4605,43
902,21	4489,80
902,39	4673,33
902,56	4819,39
902,74	4984,24
902,92	5031,50
903,09	4867,89
903,27	4814,19
903,44	4696,28
903,62	4895,00
903,80	4889,12
903,97	4770,01
904,15	4623,83
904,33	4526,69
904,50	4523,09
904,68	4409,24
904,85	4458,92
905,03	4487,94
905,21	4292,05
905,38	4183,42
905,56	4235,62
905,74	4275,35
905,91	4286,85
906,09	4274,96
906,26	4618,69
906,44	4666,90
906,62	4686,01
906,79	4635,40
906,97	4735,26
907,14	4659,58
907,32	4686,89
907,50	4756,94
907,67	4765,88
907,85	4448,61
908,02	4330,22
908,20	4205,91
908,38	4216,70
908,55	4157,64
908,73	4243,03
908,90	4250,25
909,08	4033,46
909,26	4106,11
909,43	4264,20
909,61	4316,24
909,78	4341,53
909,96	4354,24
910,13	4363,54
910,31	4244,01
910,49	5466,26
910,66	5661,59
910,84	5693,81
911,01	5643,13
911,19	5634,12
911,36	5600,61
911,54	5534,23
911,72	5529,03
911,89	5509,69
912,07	4362,92
912,24	4198,89
912,42	4081,05
912,59	4068,57
912,77	4016,88
912,94	4057,68
913,12	4335,91
913,30	4281,82
913,47	4456,97
913,65	4318,81
913,82	4421,34
914,00	4504,78
914,17	4640,89
914,35	4776,16
914,52	4880,89
914,70	4721,67
914,87	4794,16
915,05	4852,22
915,22	4804,76
915,40	4697,98
915,57	4691,41
915,75	4502,87
915,93	4429,53
916,10	4509,04
916,28	4404,04
916,45	4345,66
916,63	4328,69
916,80	4294,56
916,98	4322,45
917,15	4280,51
917,33	4286,76
917,50	4370,14
917,68	4205,13
917,85	4397,57
918,03	4401,02
918,20	4177,34
918,38	4375,01
918,55	4445,91
918,73	4511,45
918,90	4494,93
919,08	4481,70
919,25	4536,35
919,43	5266,99
919,60	5293,97
919,78	5437,03
919,95	5354,14
920,13	5327,48
920,30	5226,64
920,47	5444,90
920,65	5402,15
920,82	5254,44
921,00	4393,48
921,17	4536,45
921,35	4509,17
921,52	4439,77
921,70	4573,57
921,87	4562,29
922,05	4469,09
922,22	4518,92
922,40	4589,47
922,57	4561,83
922,75	4436,91
922,92	4318,42
923,09	4262,80
923,27	4337,76
923,44	4435,87
923,62	4403,69
923,79	4310,84
923,97	4351,32
924,14	4388,37
924,32	4477,57
924,49	4609,98
924,66	4900,82
924,84	4790,91
925,01	4888,66
925,19	4871,73
925,36	4827,22
925,54	4849,17
925,71	4792,41
925,88	4947,34
926,06	4903,19
926,23	4668,98
926,41	4643,82
926,58	4403,65
926,75	4342,67
926,93	4334,51
927,10	4311,20
927,28	4347,35
927,45	4207,02
927,63	4195,25
927,80	4235,36
927,97	4047,40
928,15	4034,14
928,32	4025,53
928,50	4006,48
928,67	4154,32
928,84	4173,01
929,02	4253,40
929,19	4227,79
929,37	4255,52
929,54	4354,21
929,71	4495,55
929,89	4526,14
930,06	4528,77
930,23	4435,12
930,41	4453,32
930,58	4358,24
930,76	4341,56
930,93	4401,12
931,10	4387,30
931,28	4432,78
931,45	4398,71
931,62	4509,50
931,80	4463,34
931,97	4552,80
932,15	4525,00
932,32	4484,56
932,49	4394,62
932,67	4542,98
932,84	4634,62
933,01	4597,30
933,19	4509,69
933,36	4471,24
933,53	4394,62
933,71	4376,48
933,88	4469,25
934,05	4609,78
934,23	4706,13
934,40	4510,47
934,57	4622,23
934,75	4796,60
934,92	4737,41
935,09	4771,96
935,27	4773,49
935,44	4747,58
935,61	4616,09
935,79	4421,56
935,96	4476,66
936,13	4416,14
936,31	4305,16
936,48	4330,87
936,65	4320,17
936,83	4254,87
937,00	4334,05
937,17	4259,78
937,35	4433,59
937,52	4535,08
937,69	4564,66
937,87	4564,66
938,04	4590,38
938,21	4452,12
938,38	4476,83
938,56	4368,45
938,73	4459,89
938,90	4292,02
939,08	4197,82
939,25	4306,46
939,42	4352,32
939,60	4325,18
939,77	4406,35
939,94	4579,16
940,11	4689,82
940,29	4615,93
940,46	4658,80
940,63	4675,71
940,81	4555,66
940,98	4497,18
941,15	4487,42
941,32	4409,11
941,50	4218,59
941,67	4194,24
941,84	4418,48
942,01	4373,58
942,19	4278,47
942,36	4376,77
942,53	4356,55
942,71	4448,42
942,88	4418,28
943,05	4508,55
943,22	4390,29
943,40	4195,48
943,57	4246,51
943,74	4405,86
943,91	4317,90
944,09	4335,68
944,26	4266,08
944,43	4400,40
944,60	4373,88
944,77	4520,26
944,95	4520,03
945,12	4517,66
945,29	4331,88
945,46	4270,57
945,64	4315,82
945,81	4369,59
945,98	4409,67
946,15	4475,72
946,33	4394,45
946,50	4518,50
946,67	4416,53
946,84	4460,38
947,01	4426,38
947,19	4382,95
947,36	4495,75
947,53	4364,12
947,70	4265,24
947,87	4433,14
948,05	4391,63
948,22	4450,20
948,39	4464,25
948,56	4615,02
948,74	4550,33
948,91	4387,92
949,08	4353,75
949,25	4338,41
949,42	4172,79
949,59	4184,29
949,77	4370,04
949,94	4345,66
950,11	4302,03
950,28	4257,89
950,45	4383,56
950,63	4630,65
950,80	4707,50
950,97	4743,78
951,14	4544,25
951,31	4314,22
951,48	4216,96
951,66	4418,64
951,83	4455,57
952,00	4420,36
952,17	4185,69
952,34	4016,13
952,51	3952,94
952,69	4224,86
952,86	4281,10
953,03	4328,07
953,20	4061,51
953,37	4352,16
953,54	4350,86
953,72	4537,19
953,89	4663,00
954,06	4743,88
954,23	4565,60
954,40	4640,24
954,57	4654,45
954,74	4617,81
954,92	4483,04
955,09	4469,29
955,26	4433,95
955,43	4406,35
955,60	4369,39
955,77	4301,61
955,94	4122,50
956,11	4312,60
956,29	4460,67
956,46	4383,27
956,63	4291,08
956,80	4279,18
956,97	4337,53
957,14	4326,48
957,31	4333,66
957,48	4442,17
957,66	4419,68
957,83	4483,36
958,00	4448,45
958,17	4507,68
958,34	4524,45
958,51	4535,96
958,68	4556,02
958,85	4697,78
959,02	4717,35
959,19	4537,16
959,37	4386,78
959,54	4510,41
959,71	4476,47
959,88	4719,37
960,05	4728,66
960,22	4802,32
960,39	4850,44
960,56	4766,79
960,73	4896,47
960,90	5051,10
961,07	4964,76
961,24	4960,60
961,42	4660,59
961,59	4504,59
961,76	4376,54
961,93	4380,74
962,10	4312,86
962,27	4367,41
962,44	4425,43
962,61	4468,67
962,78	4500,27
962,95	4508,42
963,12	4554,75
963,29	4598,21
963,46	4476,76
963,63	4731,20
963,80	4692,32
963,97	4740,50
964,14	4594,73
964,32	4575,94
964,49	4584,04
964,66	4695,57
964,83	4641,96
965,00	4734,61
965,17	4606,17
965,34	4563,85
965,51	4393,80
965,68	4541,35
965,85	4516,39
966,02	4497,50
966,19	4492,24
966,36	4497,73
966,53	4423,06
966,70	4468,93
966,87	4435,06
967,04	4560,66
967,21	4478,45
967,38	4705,94
967,55	4681,66
967,72	4638,91
967,89	4713,77
968,06	4746,90
968,23	4684,97
968,40	4702,27
968,57	4506,93
968,74	4610,34
968,91	4459,40
969,08	4455,14
969,25	4631,86
969,42	4654,84
969,59	4670,15
969,76	4591,22
969,93	4611,96
970,10	4574,93
970,27	4455,73
970,44	4473,67
970,61	4600,42
970,78	4327,78
970,95	4201,13
971,12	4171,03
971,29	4190,27
971,46	4058,33
971,63	4094,80
971,80	4112,22
971,97	4181,27
972,14	4020,59
972,31	4026,99
972,48	4070,74
972,65	4101,63
972,82	4160,53
972,98	4158,68
973,15	4180,55
973,32	4320,40
973,49	4085,28
973,66	4082,12
973,83	4147,33
974,00	4363,05
974,17	4322,48
974,34	4254,80
974,51	4584,00
974,68	4507,74
974,85	4465,58
975,02	4609,00
975,19	4678,24
975,36	4742,02
975,53	4552,47
975,70	4558,62
975,86	4909,21
976,03	4730,35
976,20	4825,60
976,37	4899,62
976,54	4891,26
976,71	4826,83
976,88	4810,68
977,05	4772,58
977,22	4866,53
977,39	4670,99
977,56	4627,56
977,73	4592,59
977,89	4426,51
978,06	4358,44
978,23	4385,97
978,40	4277,13
978,57	4344,33
978,74	4270,01
978,91	4278,63
979,08	4378,20
979,25	4471,56
979,42	4573,28
979,58	4519,51
979,75	4497,31
979,92	4613,78
980,09	4606,14
980,26	4670,90
980,43	4580,14
980,60	4459,92
980,77	4452,45
980,93	4338,35
981,10	4628,96
981,27	4697,20
981,44	4676,98
981,61	4638,13
981,78	4433,95
981,95	4522,89
982,12	4536,54
982,28	4633,22
982,45	4593,82
982,62	4448,74
982,79	4449,68
982,96	4421,53
983,13	4378,56
983,29	4523,87
983,46	4437,62
983,63	4346,67
983,80	4225,67
983,97	4379,30
984,14	4312,40
984,31	4286,04
984,47	4239,17
984,64	4252,10
984,81	4229,71
984,98	4307,56
985,15	4400,53
985,32	4352,88
985,48	4287,31
985,65	4316,86
985,82	4304,31
985,99	4319,85
986,16	4402,71
986,32	4429,14
986,49	4242,45
986,66	4251,06
986,83	4232,44
987,00	4186,44
987,17	4034,04
987,33	3989,61
987,50	3982,36
987,67	4288,90
987,84	4195,28
988,01	4314,52
988,17	4456,12
988,34	4475,49
988,51	4493,67
988,68	4569,96
988,85	4702,36
989,01	4680,97
989,18	4416,07
989,35	4423,61
989,52	4349,98
989,68	4156,27
989,85	4195,70
990,02	4340,46
990,19	4443,47
990,36	4547,04
990,52	4727,98
990,69	4881,22
990,86	4902,38
991,03	4923,25
991,19	4970,71
991,36	4933,17
991,53	4845,27
991,70	4759,61
991,87	4542,39
992,03	4449,65
992,20	4215,56
992,37	4277,30
992,54	4394,45
992,70	4347,09
992,87	4518,57
993,04	4461,39
993,21	4652,46
993,37	4690,92
993,54	4760,75
993,71	4722,06
993,88	4738,35
994,04	4601,27
994,21	4873,13
994,38	4826,87
994,54	4853,91
994,71	4756,46
994,88	4752,91
995,05	4654,81
995,21	4749,53
995,38	4800,57
995,55	4893,90
995,72	4790,72
995,88	4782,07
996,05	4802,19
996,22	4713,12
996,38	4799,40
996,55	4714,49
996,72	4719,85
996,89	4654,35
997,05	4646,32
997,22	4403,85
997,39	4232,53
997,55	4234,39
997,72	4310,97
997,89	4231,46
998,05	4311,62
998,22	4200,90
998,39	4151,33
998,56	4065,64
998,72	4194,63
998,89	4385,58
999,06	4380,80
999,22	4270,47
999,39	4304,34
999,56	4275,61
999,72	4483,46
999,89	4641,25
1000,06	4727,10
1000,22	4679,41
1000,39	4591,55
1000,56	4527,57
1000,72	4617,32
1000,89	4546,98
1001,06	4561,96
1001,22	4368,41
1001,39	4246,38
1001,56	4240,47
1001,72	4282,76
1001,89	4241,99
1002,06	4435,12
1002,22	4496,04
1002,39	4549,97
1002,56	4734,29
1002,72	4852,16
1002,89	4884,08
1003,05	4829,66
1003,22	4882,78
1003,39	4925,92
1003,55	4896,50
1003,72	4907,19
1003,89	4864,51
1004,05	4757,07
1004,22	4643,27
1004,39	4592,46
1004,55	4582,64
1004,72	4620,67
1004,88	4584,98
1005,05	4495,00
1005,22	4388,70
1005,38	4431,35
1005,55	4333,44
1005,72	4342,54
1005,88	4308,28
1006,05	4443,83
1006,21	4338,38
1006,38	4487,59
1006,55	4519,93
1006,71	4595,32
1006,88	4551,76
1007,04	4566,29
1007,21	4534,98
1007,38	4666,48
1007,54	4519,18
1007,71	4496,17
1007,87	4374,36
1008,04	4319,43
1008,21	4278,43
1008,37	4300,70
1008,54	4289,10
1008,70	4360,84
1008,87	4320,53
1009,03	4332,27
1009,20	4438,70
1009,37	4653,28
1009,53	4634,94
1009,70	4711,86
1009,86	4705,26
1010,03	4811,98
1010,19	4776,61
1010,36	4775,67
1010,53	4796,05
1010,69	4825,73
1010,86	4726,16
1011,02	4728,63
1011,19	4631,01
1011,35	4620,80
1011,52	4596,16
1011,68	4666,15
1011,85	4529,72
1012,02	4542,82
1012,18	4495,29
1012,35	4409,73
1012,51	4692,32
1012,68	4905,83
1012,84	4961,42
1013,01	4870,30
1013,17	4730,68
1013,34	4808,05
1013,50	4987,91
1013,67	4848,84
1013,84	4756,75
1014,00	4390,13
1014,17	4309,06
1014,33	4205,68
1014,50	4333,96
1014,66	4411,13
1014,83	4464,60
1014,99	4210,56
1015,16	4442,27
1015,32	4444,38
1015,49	4491,10
1015,65	4347,09
1015,82	4432,97
1015,98	4584,20
1016,15	4604,61
1016,31	4600,26
1016,48	4887,33
1016,64	4792,80
1016,81	4874,36
1016,97	4897,67
1017,14	4830,48
1017,30	4847,74
1017,47	4609,03
1017,63	4767,96
1017,80	4642,62
1017,96	4524,68
1018,13	4459,47
1018,29	4365,55
1018,46	4346,80
1018,62	4610,60
1018,79	4711,63
1018,95	4764,71
1019,11	4674,41
1019,28	4630,07
1019,44	4600,49
1019,61	4605,52
1019,77	4547,79
1019,94	4628,96
1020,10	4428,20
1020,27	4442,30
1020,43	4490,06
1020,60	4534,79
1020,76	4651,13
1020,93	4499,74
1021,09	4498,15
1021,25	4607,21
1021,42	4484,40
1021,58	4496,46
1021,75	4289,49
1021,91	4335,22
1022,08	4230,58
1022,24	4288,93
1022,41	4403,82
1022,57	4345,07
1022,73	4408,04
1022,90	4480,05
1023,06	4433,88
1023,23	4558,10
1023,39	4565,57
1023,56	4636,47
1023,72	4585,40
1023,88	4624,54
1024,05	4677,53
1024,21	4622,49
1024,38	4676,23
1024,54	4768,13
1024,70	4707,24
1024,87	4462,59
1025,03	4405,73
1025,20	4403,49
1025,36	4344,20
1025,52	4403,62
1025,69	4321,51
1025,85	4344,81
1026,02	4404,56
1026,18	4497,60
1026,34	4629,25
1026,51	4734,29
1026,67	4648,17
1026,84	4632,60
1027,00	4617,06
1027,16	4644,08
1027,33	4571,52
1027,49	4581,40
1027,66	4746,28
1027,82	4703,18
1027,98	4588,20
1028,15	4611,93
1028,31	4582,90
1028,47	4492,85
1028,64	4628,31
1028,80	4612,35
1028,97	4433,66
1029,13	4284,38
1029,29	4294,33
1029,46	4381,74
1029,62	4370,92
1029,78	4345,89
1029,95	4392,80
1030,11	4201,36
1030,27	4123,02
1030,44	4188,03
1030,60	4072,53
1030,76	4053,81
1030,93	3997,99
1031,09	4115,93
1031,25	4161,08
1031,42	4121,10
1031,58	4222,59
1031,74	4369,49
1031,91	4390,00
1032,07	4476,89
1032,23	4614,56
1032,40	4523,15
1032,56	4532,71
1032,72	4505,69
1032,89	4575,26
1033,05	4602,50
1033,21	4626,43
1033,38	4556,28
1033,54	4491,72
1033,70	4311,04
1033,87	4329,34
1034,03	4280,97
1034,19	4261,92
1034,36	4216,31
1034,52	4302,49
1034,68	4359,12
1034,84	4438,27
1035,01	4563,78
1035,17	4704,18
1035,33	4766,99
1035,50	4782,79
1035,66	4802,36
1035,82	4858,63
1035,99	4731,65
1036,15	4587,84
1036,31	4553,77
1036,47	4597,46
1036,64	4641,70
1036,80	4555,17
1036,96	4591,12
1037,12	4646,06
1037,29	4506,70
1037,45	4478,16
1037,61	4562,55
1037,78	4694,07
1037,94	4481,80
1038,10	4441,04
1038,26	4487,16
1038,43	4355,41
1038,59	4369,26
1038,75	4483,52
1038,91	4472,80
1039,08	4536,77
1039,24	4360,81
1039,40	4528,38
1039,56	4580,98
1039,73	4588,43
1039,89	4627,50
1040,05	4627,50
1040,21	4850,70
1040,38	4934,27
1040,54	4900,63
1040,70	5038,39
1040,86	4946,88
1041,03	4729,57
1041,19	4701,91
1041,35	4639,75
1041,51	4661,83
1041,67	4441,65
1041,84	4324,72
1042,00	4185,01
1042,16	4187,12
1042,32	4256,78
1042,49	4466,23
1042,65	4405,86
1042,81	4596,52
1042,97	4655,78
1043,13	4679,51
1043,30	4776,09
1043,46	4829,89
1043,62	5342,86
1043,78	4596,81
1043,94	4612,90
1044,11	4297,81
>>>>>End Processed Spectral Data<<<<<
