SpectraSuite Data File
++++++++++++++++++++++++++++++++++++
Date: Tue Sep 17 11:58:59 GMT+07:00 2024
User: optic
Dark Spectrum Present: No
Reference Spectrum Present: No
Number of Sampled Component Spectra: 1
Spectrometers: USB4H09011
Integration Time (usec): 5000000 (USB4H09011)
Spectra Averaged: 7 (USB4H09011)
Boxcar Smoothing: 4 (USB4H09011)
Correct for Electrical Dark: No (USB4H09011)
Strobe/Lamp Enabled: Yes (USB4H09011)
Correct for Detector Non-linearity: No (USB4H09011)
Correct for Stray Light: No (USB4H09011)
Number of Pixels in Processed Spectrum: 3648
>>>>>Begin Processed Spectral Data<<<<<
346,55	1304,26
346,77	1304,26
346,99	1304,26
347,20	1275,88
347,42	2692,27
347,64	3396,60
347,86	3753,15
348,07	4094,83
348,29	4286,04
348,51	4604,61
348,72	4614,43
348,94	4524,81
349,16	4531,93
349,37	4584,26
349,59	4176,98
349,81	4054,07
350,02	4094,70
350,24	4229,35
350,46	4436,65
350,67	4516,78
350,89	4582,18
351,11	4642,26
351,32	4624,31
351,54	4661,47
351,76	4637,74
351,98	4543,30
352,19	4517,10
352,41	4263,94
352,63	4299,63
352,84	4211,66
353,06	4152,24
353,28	4082,45
353,49	4078,16
353,71	4198,24
353,93	4533,49
354,14	4654,94
354,36	4702,33
354,58	4673,04
354,79	4761,04
355,01	4788,02
355,22	4868,18
355,44	5264,91
355,66	5265,72
355,87	4950,40
356,09	4894,52
356,31	4962,16
356,52	4815,42
356,74	4839,51
356,96	4742,93
357,17	4599,35
357,39	4268,78
357,61	4324,01
357,82	4325,96
358,04	4307,95
358,26	4181,46
358,47	4124,06
358,69	4115,02
358,90	4119,05
359,12	4198,01
359,34	4130,79
359,55	4022,96
359,77	4257,37
359,99	4398,45
360,20	4542,10
360,42	4687,54
360,63	4600,06
360,85	4679,58
361,07	4670,02
361,28	4609,10
361,50	4690,30
361,72	4385,87
361,93	4194,21
362,15	4164,50
362,36	4227,95
362,58	4254,54
362,80	4152,79
363,01	4305,58
363,23	4412,56
363,44	4400,73
363,66	4594,31
363,88	4540,22
364,09	4542,65
364,31	4432,19
364,52	4473,48
364,74	4479,85
364,96	4418,83
365,17	4514,34
365,39	4556,15
365,60	4532,77
365,82	4588,95
366,04	4542,39
366,25	4668,07
366,47	4550,07
366,68	4621,13
366,90	4540,61
367,12	4392,24
367,33	4323,68
367,55	4230,84
367,76	4289,71
367,98	4210,33
368,20	4102,21
368,41	4287,67
368,63	4401,31
368,84	4374,49
369,06	4380,80
369,27	4326,32
369,49	4596,13
369,71	4465,38
369,92	4489,08
370,14	4483,20
370,35	4495,29
370,57	4600,62
370,78	4681,40
371,00	4918,21
371,22	4956,67
371,43	4766,73
371,65	4881,80
371,86	4956,67
372,08	5160,36
372,29	4954,17
372,51	4906,12
372,72	4863,37
372,94	4711,21
373,16	4662,44
373,37	4711,27
373,59	4810,91
373,80	4831,55
374,02	4615,93
374,23	4673,37
374,45	4550,94
374,66	4667,03
374,88	4777,65
375,09	5002,47
375,31	5011,83
375,53	4949,78
375,74	4928,78
375,96	5098,27
376,17	5102,34
376,39	5068,66
376,60	4919,32
376,82	4671,45
377,03	4554,19
377,25	4307,27
377,46	4268,19
377,68	4257,73
377,89	4291,60
378,11	4295,63
378,32	4436,78
378,54	4475,95
378,75	4584,59
378,97	4558,65
379,19	4633,12
379,40	4603,28
379,62	4648,40
379,83	4493,50
380,05	4558,13
380,26	4638,10
380,48	4622,69
380,69	4619,96
380,91	4550,72
381,12	4510,63
381,34	4560,24
381,55	4501,92
381,77	4546,88
381,98	4638,10
382,20	4500,17
382,41	4549,22
382,63	4692,84
382,84	4903,26
383,06	5069,76
383,27	4962,88
383,49	5044,11
383,70	4934,08
383,92	4865,94
384,13	4836,46
384,35	4906,02
384,56	4723,43
384,78	4723,62
384,99	4685,79
385,21	4877,42
385,42	4769,91
385,63	4763,74
385,85	4638,49
386,06	4657,63
386,28	4635,20
386,49	4615,31
386,71	4499,48
386,92	4556,21
387,14	4486,81
387,35	4408,59
387,57	4551,53
387,78	4780,35
388,00	4698,79
388,21	4703,40
388,43	4813,15
388,64	4892,24
388,86	4754,90
389,07	4838,37
389,28	5211,40
389,50	5134,78
389,71	5163,77
389,93	5136,21
390,14	5173,82
390,36	5158,35
390,57	5128,60
390,79	5333,56
391,00	5248,33
391,22	4978,38
391,43	4955,17
391,64	4853,36
391,86	4894,78
392,07	4812,01
392,29	4844,49
392,50	4797,22
392,72	4697,13
392,93	4714,26
393,14	4618,72
393,36	4636,37
393,57	4582,51
393,79	4569,41
394,00	4583,81
394,22	4592,03
394,43	4725,09
394,65	4666,41
394,86	4742,09
395,07	4922,24
395,29	4932,26
395,50	4993,89
395,72	5061,60
395,93	4967,43
396,14	5013,66
396,36	4851,25
396,57	4926,63
396,79	5397,05
397,00	5363,66
397,22	5339,22
397,43	5203,17
397,64	5122,20
397,86	5177,20
398,07	5050,94
398,29	5136,89
398,50	4970,84
398,71	4582,12
398,93	4590,77
399,14	4591,77
399,36	4618,14
399,57	4786,30
399,78	4717,45
400,00	4607,08
400,21	4520,94
400,43	4644,89
400,64	4398,94
400,85	4414,06
401,07	4422,18
401,28	4463,24
401,50	4300,15
401,71	4354,53
401,92	4445,72
402,14	4555,85
402,35	4742,12
402,56	4831,26
402,78	4724,50
402,99	5423,96
403,21	5459,79
403,42	5423,38
403,63	5460,50
403,85	5472,17
404,06	5416,23
404,27	5145,28
404,49	5112,06
404,70	5295,95
404,92	4517,23
405,13	4577,34
405,34	4667,29
405,56	4580,40
405,77	4485,51
405,98	4424,49
406,20	4533,49
406,41	4598,99
406,62	4572,69
406,84	4758,80
407,05	4697,88
407,27	4758,83
407,48	4787,60
407,69	4785,94
407,91	4867,89
408,12	4979,52
408,33	4846,11
408,55	4680,58
408,76	4592,33
408,97	4521,04
409,19	4493,28
409,40	4597,01
409,61	4716,44
409,83	4720,83
410,04	4647,07
410,25	4645,70
410,47	4870,49
410,68	5068,69
410,89	5269,65
411,11	5200,41
411,32	5111,40
411,53	5203,53
411,75	5303,69
411,96	5252,45
412,17	5362,49
412,39	5302,71
412,60	5168,78
412,81	5043,85
413,03	5175,51
413,24	5144,99
413,45	5030,23
413,67	4879,72
413,88	4882,23
414,09	4875,30
414,30	4701,71
414,52	4591,84
414,73	4469,94
414,94	4348,20
415,16	4287,99
415,37	4437,95
415,58	5296,83
415,80	5240,49
416,01	5218,94
416,22	5319,52
416,44	5399,26
416,65	5415,25
416,86	5512,42
417,07	5618,20
417,29	5474,74
417,50	4604,68
417,71	4639,23
417,93	4632,73
418,14	4674,54
418,35	4762,50
418,56	4905,37
418,78	4914,05
418,99	4894,68
419,20	4891,52
419,42	5014,53
419,63	5030,82
419,84	5168,13
420,05	5094,66
420,27	4839,87
420,48	5131,92
420,69	5029,94
420,91	5091,54
421,12	5017,95
421,33	4963,14
421,54	4990,38
421,76	4820,11
421,97	4765,43
422,18	5112,12
422,39	4610,89
422,61	4659,39
422,82	4685,85
423,03	4823,39
423,24	4828,27
423,46	4715,30
423,67	4737,96
423,88	4917,99
424,09	4631,89
424,31	4688,39
424,52	4711,14
424,73	4729,51
424,94	4686,14
425,16	4724,44
425,37	4845,69
425,58	4882,49
425,79	4700,15
426,01	4708,15
426,22	4824,23
426,43	4904,69
426,64	4848,97
426,86	4812,63
427,07	4837,98
427,28	4685,36
427,49	4639,82
427,71	4641,48
427,92	4777,03
428,13	4894,06
428,34	4794,98
428,55	4828,98
428,77	4828,72
428,98	4790,62
429,19	4918,21
429,40	4925,56
429,62	5024,87
429,83	4970,71
430,04	4901,50
430,25	4961,77
430,46	5158,31
430,68	5177,23
430,89	5158,83
431,10	5195,92
431,31	5290,78
431,53	5313,24
431,74	5362,46
431,95	5280,51
432,16	5308,37
432,37	5078,86
432,59	5027,76
432,80	4929,56
433,01	4896,01
433,22	4883,11
433,43	4842,47
433,65	4772,58
433,86	4763,25
434,07	4724,18
434,28	4700,84
434,49	4749,56
434,71	4803,69
434,92	5956,79
435,13	6052,89
435,34	5954,88
435,55	5944,25
435,76	6093,29
435,98	6216,79
436,19	6257,55
436,40	6363,46
436,61	6333,07
436,82	5213,06
437,03	5085,01
437,25	5149,28
437,46	5110,07
437,67	4995,65
437,88	4919,84
438,09	5133,41
438,31	4967,17
438,52	5043,50
438,73	4968,21
438,94	4984,20
439,15	5045,06
439,36	5169,07
439,58	5174,86
439,79	5238,22
440,00	4961,29
440,21	4999,09
440,42	4996,00
440,63	5109,26
440,84	5096,45
441,06	5275,96
441,27	5212,50
441,48	5161,95
441,69	4955,08
441,90	5053,28
442,11	5117,32
442,32	5091,67
442,54	5095,41
442,75	5035,79
442,96	4881,61
443,17	4892,34
443,38	5073,92
443,59	5048,02
443,80	5085,82
444,02	5121,19
444,23	5126,23
444,44	5015,31
444,65	5167,22
444,86	5089,72
445,07	5140,60
445,28	5017,46
445,49	5029,84
445,71	5010,40
445,92	5008,49
446,13	5178,11
446,34	5207,53
446,55	5106,66
446,76	5198,49
446,97	5173,10
447,18	5190,01
447,40	5306,51
447,61	5319,88
447,82	5255,12
448,03	5078,02
448,24	5223,91
448,45	5227,91
448,66	5268,51
448,87	5267,90
449,08	5250,18
449,29	5174,89
449,51	5197,00
449,72	5251,32
449,93	5227,07
450,14	5166,28
450,35	5215,72
450,56	5126,29
450,77	5366,95
450,98	5795,13
451,19	5806,45
451,40	5823,06
451,61	5811,88
451,83	5960,17
452,04	6014,23
452,25	5983,87
452,46	6000,03
452,67	5823,77
452,88	5452,47
453,09	5636,73
453,30	5576,59
453,51	5637,12
453,72	5703,17
453,93	5648,43
454,14	5945,42
454,35	6044,21
454,57	6172,45
454,78	6250,08
454,99	6191,66
455,20	6215,59
455,41	6094,10
455,62	6068,62
455,83	6393,24
456,04	6124,69
456,25	6150,83
456,46	6061,34
456,67	6261,32
456,88	6391,94
457,09	6349,19
457,30	6496,16
457,51	6548,33
457,72	6223,35
457,93	6342,98
458,14	6383,49
458,36	6415,41
458,57	6409,43
458,78	6351,01
458,99	6438,91
459,20	6549,37
459,41	6414,50
459,62	6533,18
459,83	6522,59
460,04	6543,13
460,25	6537,96
460,46	6430,72
460,67	6372,92
460,88	6584,80
461,09	6603,95
461,30	6620,30
461,51	6608,18
461,72	6632,79
461,93	6691,72
462,14	6687,11
462,35	6605,93
462,56	6630,87
462,77	6427,73
462,98	6373,18
463,19	6658,27
463,40	6868,43
463,61	7003,40
463,82	7090,04
464,03	7278,42
464,24	7392,61
464,45	7599,00
464,66	7741,42
464,87	7865,50
465,08	8003,33
465,29	7925,77
465,50	7861,79
465,71	7880,68
465,92	7918,98
466,13	8032,88
466,34	7995,89
466,55	8016,17
466,76	8048,55
466,97	7910,75
467,18	7809,39
467,39	8345,02
467,60	8240,12
467,81	8155,17
468,02	8261,51
468,23	8288,42
468,44	8359,09
468,65	8619,19
468,86	8722,92
469,07	8963,21
469,28	8774,08
469,49	8994,22
469,70	9096,52
469,91	9035,96
470,12	9210,04
470,33	9311,66
470,54	9169,44
470,75	9129,32
470,96	9141,48
471,17	8960,38
471,38	8985,97
471,59	9951,93
471,80	10145,60
472,01	10137,54
472,22	10286,52
472,43	10430,17
472,63	10504,78
472,84	10651,55
473,05	10820,62
473,26	10957,84
473,47	10189,42
473,68	10160,10
473,89	10643,16
474,10	10659,97
474,31	10738,25
474,52	10959,53
474,73	11025,58
474,94	11131,00
475,15	11174,99
475,36	11259,93
475,57	11271,79
475,78	10983,29
475,99	11085,85
476,20	11087,67
476,40	11067,19
476,61	11260,12
476,82	11337,62
477,03	11344,58
477,24	11437,19
477,45	11839,34
477,66	11966,61
477,87	12151,96
478,08	12363,49
478,29	12509,16
478,50	12699,23
478,71	12988,84
478,92	13163,60
479,12	13396,64
479,33	13373,07
479,54	13446,18
479,75	13438,28
479,96	13464,35
480,17	13668,11
480,38	13735,50
480,59	13776,75
480,80	13973,06
481,01	14089,67
481,22	14109,11
481,42	14259,58
481,63	14357,07
481,84	14435,84
482,05	14393,48
482,26	14327,49
482,47	14295,83
482,68	14334,94
482,89	14357,95
483,10	14497,93
483,30	14529,04
483,51	14818,84
483,72	15041,19
483,93	15204,67
484,14	15373,00
484,35	15527,18
484,56	15838,63
484,77	16005,36
484,98	16117,74
485,18	16326,67
485,39	16493,98
485,60	16583,02
485,81	16670,30
486,02	16795,46
486,23	16894,47
486,44	16844,41
486,65	16834,43
486,85	17011,11
487,06	17118,65
487,27	17107,66
487,48	17174,01
487,69	17342,00
487,90	17316,81
488,11	17448,82
488,31	17891,51
488,52	18293,95
488,73	18452,78
488,94	18497,35
489,15	18730,95
489,36	18840,01
489,57	19087,04
489,77	19375,31
489,98	19393,94
490,19	19197,53
490,40	19272,33
490,61	19258,90
490,82	19533,40
491,02	19616,22
491,23	19825,90
491,44	19714,17
491,65	19772,46
491,86	20012,46
492,07	20073,05
492,27	20043,05
492,48	20430,24
492,69	20411,88
492,90	20316,01
493,11	20348,00
493,32	20557,71
493,52	20676,33
493,73	20802,78
493,94	20918,96
494,15	20870,10
494,36	20907,19
494,56	21053,67
494,77	21389,80
494,98	21576,33
495,19	21799,55
495,40	21958,55
495,61	21988,20
495,81	22040,99
496,02	22277,48
496,23	22336,68
496,44	22231,77
496,65	22182,30
496,85	22359,04
497,06	22227,71
497,27	22192,21
497,48	22269,16
497,69	22460,33
497,89	22470,57
498,10	22562,05
498,31	22857,77
498,52	22911,34
498,73	22956,88
498,93	23190,55
499,14	23363,46
499,35	23510,78
499,56	23491,37
499,76	23579,63
499,97	23576,70
500,18	23617,86
500,39	23683,65
500,60	23621,79
500,80	23513,90
501,01	23640,03
501,22	23554,34
501,43	23682,87
501,63	23741,87
501,84	23708,03
502,05	23702,51
502,26	23709,69
502,47	23804,29
502,67	24074,39
502,88	23978,37
503,09	24250,36
503,30	24155,37
503,50	24348,27
503,71	24629,85
503,92	24636,71
504,13	24807,63
504,33	24809,78
504,54	24784,78
504,75	24882,04
504,96	24939,90
505,16	25144,08
505,37	25046,66
505,58	24857,14
505,79	24909,64
505,99	24858,89
506,20	25029,49
506,41	25024,36
506,62	25034,14
506,82	25007,65
507,03	25009,79
507,24	25052,67
507,45	25065,84
507,65	25158,87
507,86	25242,91
508,07	25095,94
508,27	25063,53
508,48	25228,63
508,69	25366,08
508,90	25337,63
509,10	25486,97
509,31	25733,02
509,52	25748,85
509,72	25805,06
509,93	25905,70
510,14	26311,91
510,35	26420,81
510,55	26319,10
510,76	26562,25
510,97	26569,05
511,17	26488,07
511,38	26604,38
511,59	26675,22
511,80	26714,87
512,00	26549,64
512,21	26434,95
512,42	26436,06
512,62	26402,28
512,83	26517,07
513,04	26622,46
513,25	26569,14
513,45	26551,20
513,66	26680,12
513,87	26629,45
514,07	26664,07
514,28	26775,11
514,49	26818,48
514,69	26863,79
514,90	26770,40
515,11	26960,21
515,31	27105,94
515,52	27092,74
515,73	27055,65
515,93	27330,76
516,14	27395,52
516,35	27265,32
516,55	27099,83
516,76	27256,09
516,97	27225,73
517,17	27300,14
517,38	27309,86
517,59	27370,48
517,79	27127,85
518,00	27071,25
518,21	27330,89
518,41	27408,10
518,62	27286,39
518,83	27210,03
519,03	27029,19
519,24	27108,86
519,45	27048,63
519,65	27043,91
519,86	27022,88
520,07	26848,97
520,27	26888,85
520,48	27045,54
520,69	27178,89
520,89	27171,44
521,10	27116,96
521,31	27141,50
521,51	27110,72
521,72	27227,87
521,93	27205,44
522,13	27187,86
522,34	27207,07
522,54	27161,98
522,75	27361,35
522,96	27366,42
523,16	27419,93
523,37	27440,57
523,58	27335,99
523,78	27483,25
523,99	27445,22
524,19	27475,00
524,40	27444,54
524,61	27253,07
524,81	27163,41
525,02	27224,79
525,23	27249,13
525,43	27313,99
525,64	27181,03
525,84	27338,92
526,05	27168,22
526,26	27249,59
526,46	27390,74
526,67	27540,69
526,87	27448,70
527,08	27484,36
527,29	27392,30
527,49	27543,46
527,70	27425,55
527,91	27386,41
528,11	27277,32
528,32	27301,93
528,52	27245,88
528,73	27287,01
528,93	27254,14
529,14	27299,39
529,35	27139,91
529,55	27138,61
529,76	27210,19
529,96	27366,32
530,17	27168,09
530,38	27136,85
530,58	27290,55
530,79	27385,02
530,99	27409,01
531,20	27370,81
531,41	27313,11
531,61	27306,67
531,82	27108,21
532,02	27232,10
532,23	27122,65
532,43	26929,39
532,64	26948,99
532,85	26968,53
533,05	26969,64
533,26	26981,34
533,46	26896,59
533,67	26944,60
533,87	26913,89
534,08	26963,10
534,28	27004,58
534,49	26782,49
534,70	26553,35
534,90	26660,55
535,11	26550,52
535,31	26556,73
535,52	26658,44
535,72	26531,21
535,93	26619,60
536,13	26495,48
536,34	26459,01
536,54	26614,13
536,75	26426,57
536,96	26457,81
537,16	26437,62
537,37	26366,92
537,57	26317,76
537,78	26155,42
537,98	26263,35
538,19	26317,08
538,39	26208,38
538,60	26496,88
538,80	26558,35
539,01	26813,66
539,21	26921,82
539,42	26883,75
539,62	26954,29
539,83	26751,87
540,04	26876,60
540,24	27029,71
540,45	26861,48
540,65	26948,57
540,86	26640,21
541,06	26343,38
541,27	26318,32
541,47	26254,47
541,68	26409,01
541,88	26271,02
542,09	26122,82
542,29	26112,45
542,50	25958,36
542,70	26004,16
542,91	26264,65
543,11	26348,45
543,32	26314,74
543,52	26293,19
543,73	26130,62
543,93	26066,58
544,14	26042,52
544,34	25918,90
544,55	25900,11
544,75	25662,74
544,96	25710,04
545,16	25634,68
545,37	25547,01
545,57	25663,84
545,78	25621,62
545,98	25424,88
546,18	25451,21
546,39	25389,19
546,59	25387,82
546,80	25324,89
547,00	25476,86
547,21	25376,84
547,41	25347,12
547,62	25291,63
547,82	25314,23
548,03	25321,38
548,23	25155,49
548,44	25302,10
548,64	25090,67
548,85	25036,06
549,05	25065,51
549,26	24912,14
549,46	24914,09
549,66	24876,29
549,87	24791,15
550,07	24843,29
550,28	24603,48
550,48	24681,57
550,69	24391,89
550,89	24306,98
551,10	24347,75
551,30	24376,48
551,50	24296,97
551,71	24176,89
551,91	24101,41
552,12	23979,57
552,32	23826,36
552,53	23824,64
552,73	23799,44
552,94	24005,35
553,14	23918,03
553,34	23856,14
553,55	23776,01
553,75	23748,28
553,96	23688,98
554,16	23662,43
554,37	23668,15
554,57	23708,10
554,77	23357,99
554,98	23276,21
555,18	23214,02
555,39	23343,72
555,59	23279,52
555,79	23263,43
556,00	23156,58
556,20	23011,76
556,41	22862,74
556,61	22886,02
556,82	22708,76
557,02	22722,31
557,22	22562,24
557,43	22555,35
557,63	22520,96
557,84	22638,08
558,04	22763,01
558,24	22668,32
558,45	22452,08
558,65	22551,16
558,86	22489,07
559,06	22401,59
559,26	22354,00
559,47	22287,49
559,67	22087,18
559,87	22018,43
560,08	22060,52
560,28	22029,64
560,49	22009,94
560,69	21927,02
560,89	21958,00
561,10	21875,82
561,30	21733,30
561,51	21677,29
561,71	21613,58
561,91	22024,64
562,12	22096,22
562,32	21966,12
562,52	21857,94
562,73	21904,13
562,93	21914,79
563,13	21875,20
563,34	21885,93
563,54	21947,24
563,75	21614,81
563,95	21471,52
564,15	21343,44
564,36	21361,00
564,56	21118,39
564,76	20961,55
564,97	20962,55
565,17	20869,87
565,37	20819,81
565,58	20442,43
565,78	20451,93
565,98	20681,20
566,19	20585,47
566,39	20556,11
566,59	20427,38
566,80	20432,16
567,00	20493,18
567,20	20253,14
567,41	20253,21
567,61	20187,54
567,81	19908,63
568,02	19877,84
568,22	19877,75
568,42	20010,44
568,63	19884,87
568,83	19813,84
569,03	19810,26
569,24	19756,72
569,44	19863,61
569,64	20015,35
569,85	20009,47
570,05	20055,43
570,25	19882,49
570,46	19865,07
570,66	19879,21
570,86	19767,87
571,07	19620,61
571,27	19579,82
571,47	19375,02
571,68	19251,62
571,88	19177,57
572,08	19178,87
572,28	19130,50
572,49	18924,95
572,69	18918,78
572,89	19125,46
573,10	18974,11
573,30	18965,59
573,50	18969,16
573,71	18758,65
573,91	18617,11
574,11	18650,20
574,31	18565,36
574,52	18491,96
574,72	18404,90
574,92	18303,70
575,13	18196,79
575,33	18263,23
575,53	18292,00
575,73	18360,92
575,94	18292,91
576,14	18285,37
576,34	18237,39
576,55	18108,69
576,75	18082,52
576,95	17991,96
577,15	17828,80
577,36	17697,67
577,56	17615,94
577,76	17551,22
577,96	17508,38
578,17	17508,05
578,37	17435,46
578,57	17417,29
578,77	17405,75
578,98	17400,06
579,18	17660,54
579,38	17539,68
579,58	17459,42
579,79	17514,59
579,99	17406,56
580,19	17302,12
580,39	17106,36
580,60	16998,47
580,80	17024,21
581,00	16810,28
581,20	16767,01
581,41	16717,18
581,61	16526,17
581,81	16645,79
582,01	16589,75
582,22	16576,06
582,42	16717,41
582,62	16565,63
582,82	16555,81
583,03	16598,07
583,23	16581,82
583,43	16561,18
583,63	16246,05
583,83	16249,30
584,04	16291,66
584,24	16069,70
584,44	16099,15
584,64	15938,27
584,85	16057,93
585,05	15977,73
585,25	15941,00
585,45	16114,43
585,65	16107,24
585,86	16040,50
586,06	16099,80
586,26	15985,53
586,46	15900,23
586,66	15623,53
586,87	15712,96
587,07	15739,45
587,27	15574,12
587,47	15515,25
587,67	15516,71
587,88	15345,10
588,08	15380,08
588,28	15554,52
588,48	15503,42
588,68	15321,21
588,89	15150,87
589,09	15177,01
589,29	15086,77
589,49	14953,26
589,69	14959,37
589,89	14967,40
590,10	14714,17
590,30	14888,90
590,50	14839,71
590,70	15003,84
590,90	14924,04
591,11	14916,49
591,31	14962,39
591,51	15042,27
591,71	14827,94
591,91	14947,86
592,11	14692,52
592,32	14680,69
592,52	14507,06
592,72	14489,12
592,92	14439,09
593,12	14320,21
593,32	14082,78
593,52	14105,66
593,73	13918,13
593,93	13939,13
594,13	13805,58
594,33	13789,20
594,53	13775,91
594,73	13775,35
594,94	13732,96
595,14	13752,73
595,34	13777,86
595,54	13787,12
595,74	13749,96
595,94	13741,29
596,14	13826,97
596,35	13763,85
596,55	13729,91
596,75	13736,34
596,95	13602,93
597,15	13467,21
597,35	13430,58
597,55	13539,41
597,75	13555,05
597,96	13530,77
598,16	13408,38
598,36	13349,99
598,56	13499,75
598,76	13597,96
598,96	13614,90
599,16	13621,33
599,36	13412,70
599,56	13414,81
599,77	13233,78
599,97	13356,53
600,17	13338,62
600,37	12952,72
600,57	12891,54
600,77	12754,59
600,97	12661,13
601,17	12663,40
601,37	12494,40
601,58	12748,02
601,78	12634,24
601,98	12609,77
602,18	12672,34
602,38	12603,39
602,58	12786,35
602,78	12744,44
602,98	12669,32
603,18	12631,09
603,38	12329,23
603,58	12194,32
603,79	12196,04
603,99	12209,70
604,19	12263,72
604,39	12050,15
604,59	12056,75
604,79	12176,64
604,99	12307,41
605,19	12325,62
605,39	12357,77
605,59	12163,60
605,79	12160,51
605,99	12070,96
606,19	12172,15
606,40	12073,07
606,60	11893,40
606,80	11865,41
607,00	11813,66
607,20	11752,81
607,40	11749,55
607,60	11762,56
607,80	11736,36
608,00	11550,64
608,20	11522,59
608,40	11491,64
608,60	11354,91
608,80	11333,33
609,00	11376,50
609,20	11426,95
609,40	11295,82
609,60	11298,09
609,80	11460,89
610,00	11514,53
610,20	11425,55
610,41	11486,86
610,61	11350,10
610,81	11166,66
611,01	11202,29
611,21	11469,15
611,41	11586,63
611,61	11389,96
611,81	11303,68
612,01	11250,73
612,21	11333,17
612,41	11386,51
612,61	11412,29
612,81	11330,66
613,01	11087,35
613,21	10788,41
613,41	10691,18
613,61	10723,52
613,81	10745,17
614,01	10504,81
614,21	10366,88
614,41	10319,65
614,61	10211,27
614,81	10184,78
615,01	10288,21
615,21	10341,43
615,41	10376,24
615,61	10506,92
615,81	10445,71
616,01	10664,59
616,21	10638,71
616,41	10706,03
616,61	10594,08
616,81	10670,24
617,01	10596,32
617,21	10452,51
617,41	10306,03
617,61	10328,04
617,81	10119,11
618,01	10425,53
618,21	10351,93
618,41	10208,73
618,61	10031,99
618,81	10064,17
619,01	10151,55
619,21	10150,32
619,41	10250,12
619,61	10202,14
619,81	10004,10
620,01	9948,74
620,21	10034,79
620,41	10024,42
620,61	9992,88
620,80	9929,59
621,00	9971,75
621,20	9773,98
621,40	9661,34
621,60	9568,37
621,80	9527,54
622,00	9516,65
622,20	9440,94
622,40	9407,36
622,60	9214,59
622,80	9083,42
623,00	9076,89
623,20	9179,74
623,40	9148,18
623,60	9161,70
623,80	9118,53
624,00	9179,71
624,20	9170,80
624,40	9294,01
624,59	9316,86
624,79	9323,72
624,99	9273,07
625,19	9200,13
625,39	9108,49
625,59	9172,49
625,79	9109,59
625,99	9034,86
626,19	8947,02
626,39	8979,43
626,59	8980,96
626,79	8906,13
626,99	8977,25
627,19	9060,41
627,38	8897,35
627,58	8862,21
627,78	8828,05
627,98	8802,72
628,18	8628,55
628,38	8507,29
628,58	8556,64
628,78	8519,22
628,98	8482,46
629,18	8539,02
629,38	8637,45
629,57	8734,07
629,77	8728,44
629,97	8667,07
630,17	9105,46
630,37	9158,03
630,57	9106,31
630,77	9229,12
630,97	9136,64
631,17	8973,48
631,36	8835,55
631,56	9026,31
631,76	9054,82
631,96	8672,50
632,16	8647,14
632,36	8616,91
632,56	8528,91
632,76	8664,86
632,96	8733,90
633,15	8737,93
633,35	8461,62
633,55	8596,04
633,75	8527,09
633,95	8412,18
634,15	8339,07
634,35	8203,25
634,54	8168,63
634,74	8104,92
634,94	8052,97
635,14	8060,97
635,34	8028,10
635,54	8089,28
635,74	8081,93
635,93	8001,87
636,13	8114,28
636,33	8040,91
636,53	8011,26
636,73	8025,44
636,93	8077,09
637,13	7978,37
637,32	7807,54
637,52	7895,50
637,72	8046,21
637,92	7893,23
638,12	7781,18
638,32	7833,22
638,51	7862,93
638,71	7817,06
638,91	7778,15
639,11	7912,83
639,31	7799,58
639,51	7768,89
639,70	7778,45
639,90	7759,53
640,10	7615,39
640,30	7588,05
640,50	7585,38
640,70	7539,91
640,89	7465,72
641,09	7450,71
641,29	7466,11
641,49	7425,87
641,69	7440,66
641,88	7722,60
642,08	7730,56
642,28	7602,13
642,48	7684,50
642,68	7628,85
642,87	7671,79
643,07	7566,53
643,27	7679,33
643,47	7699,55
643,67	7459,97
643,86	8246,81
644,06	8258,91
644,26	8182,58
644,46	8206,80
644,66	8260,95
644,85	8255,13
645,05	8090,81
645,25	8096,63
645,45	8100,98
645,65	7376,23
645,84	7473,23
646,04	7387,77
646,24	7435,88
646,44	7245,58
646,63	7226,44
646,83	7291,52
647,03	7239,50
647,23	7247,73
647,43	7038,28
647,62	6891,12
647,82	7004,31
648,02	6886,67
648,22	6986,53
648,41	7065,75
648,61	6937,93
648,81	6857,83
649,01	6830,33
649,20	6865,51
649,40	6880,30
649,60	6859,23
649,80	6811,90
649,99	6773,12
650,19	6653,17
650,39	6707,29
650,59	6707,72
650,78	6656,48
650,98	6685,51
651,18	6780,56
651,38	6660,42
651,57	6760,02
651,77	6733,82
651,97	6725,20
652,17	6695,43
652,36	6827,96
652,56	6818,34
652,76	6869,50
652,95	6711,10
653,15	6794,48
653,35	6791,39
653,55	6734,31
653,74	6645,24
653,94	6787,07
654,14	6725,43
654,34	6691,10
654,53	6630,71
654,73	6651,51
654,93	6551,84
655,12	6520,80
655,32	6539,16
655,52	6631,81
655,72	6526,06
655,91	6436,41
656,11	6360,44
656,31	6226,67
656,50	6205,35
656,70	6110,98
656,90	6016,80
657,09	6174,98
657,29	6123,23
657,49	6089,03
657,69	6378,35
657,88	6413,17
658,08	6434,39
658,28	6466,12
658,47	6752,77
658,67	6781,05
658,87	6575,93
659,06	6673,39
659,26	6620,27
659,46	6305,24
659,65	6670,36
659,85	6691,40
660,05	6845,58
660,24	6671,96
660,44	6768,34
660,64	6874,38
660,83	6962,31
661,03	6979,54
661,23	7171,17
661,42	6806,93
661,62	6694,71
661,82	6460,76
662,01	6394,99
662,21	6329,26
662,41	6391,81
662,60	6189,12
662,80	6166,47
663,00	5978,54
663,19	5960,76
663,39	6096,67
663,59	6180,80
663,78	6278,10
663,98	6231,48
664,18	5954,55
664,37	6054,84
664,57	6071,58
664,77	5989,14
664,96	6026,46
665,16	6044,63
665,35	6146,93
665,55	6009,81
665,75	6009,65
665,94	7706,70
666,14	7510,75
666,34	7611,49
666,53	7685,25
666,73	7613,21
666,93	7569,39
667,12	7353,93
667,32	7327,89
667,51	7187,36
667,71	5640,17
667,91	5657,14
668,10	5605,19
668,30	5495,97
668,49	5573,01
668,69	5478,12
668,89	5477,54
669,08	5555,75
669,28	5695,86
669,48	5761,78
669,67	5884,04
669,87	5767,99
670,06	5890,93
670,26	5915,96
670,46	5928,41
670,65	5979,06
670,85	5860,21
671,04	5846,89
671,24	5648,75
671,44	5476,76
671,63	5515,11
671,83	5485,40
672,02	5473,44
672,22	5550,03
672,41	5485,63
672,61	5548,60
672,81	5684,87
673,00	5741,20
673,20	5857,39
673,39	5750,18
673,59	5906,67
673,79	5968,43
673,98	5889,37
674,18	5900,17
674,37	5897,63
674,57	5893,44
674,76	5830,99
674,96	5696,90
675,15	5745,53
675,35	5721,76
675,55	5682,63
675,74	5806,28
675,94	5926,07
676,13	5975,94
676,33	5787,04
676,52	6086,27
676,72	6212,66
676,92	6180,18
677,11	6139,26
677,31	5978,80
677,50	6063,78
677,70	6130,29
677,89	6133,57
678,09	6161,98
678,28	5926,63
678,48	5935,92
678,67	6059,84
678,87	5915,48
679,06	5999,35
679,26	5730,31
679,46	5606,27
679,65	5547,52
679,85	5640,66
680,04	5697,48
680,24	5593,72
680,43	5559,65
680,63	5586,92
680,82	5540,96
681,02	5533,48
681,21	5451,40
681,41	5433,07
681,60	5230,32
681,80	5113,97
681,99	5126,23
682,19	5096,03
682,38	5102,40
682,58	5035,60
682,77	5133,87
682,97	5141,51
683,16	5158,12
683,36	5393,67
683,55	5546,65
683,75	5541,80
683,94	5436,61
684,14	5561,93
684,33	5694,52
684,53	5596,42
684,72	5616,77
684,92	5618,62
685,11	5468,86
685,31	5376,50
685,50	5389,96
685,70	5406,90
685,89	5238,38
686,09	5058,13
686,28	5141,86
686,48	5070,41
686,67	5085,89
686,87	5009,43
687,06	4847,41
687,26	4874,88
687,45	4866,82
687,65	4873,03
687,84	4940,97
688,03	4881,35
688,23	4941,49
688,42	4938,53
688,62	4983,91
688,81	5109,03
689,01	5086,89
689,20	5116,51
689,40	5112,48
689,59	5049,38
689,79	5106,37
689,98	5191,93
690,17	5202,07
690,37	5203,76
690,56	5120,51
690,76	5006,70
690,95	5026,24
691,15	4973,09
691,34	5142,58
691,54	5201,91
691,73	5097,10
691,92	5080,36
692,12	5153,79
692,31	5184,29
692,51	5719,20
692,70	5656,03
692,90	5734,87
693,09	5751,02
693,28	5724,46
693,48	5678,17
693,67	5639,49
693,87	5468,60
694,06	5409,47
694,26	4955,60
694,45	4927,06
694,64	4974,35
694,84	4834,08
695,03	4712,83
695,23	4907,55
695,42	4990,48
695,61	5071,88
695,81	5138,03
696,00	5282,13
696,20	5330,08
696,39	5295,72
696,59	5409,79
696,78	5469,54
696,97	5269,10
697,17	5107,11
697,36	5325,47
697,55	5345,78
697,75	5265,30
697,94	5256,84
698,14	5155,49
698,33	5091,45
698,52	5187,37
698,72	5352,38
698,91	5358,53
699,11	5093,20
699,30	5155,62
699,49	5050,68
699,69	5050,13
699,88	5078,93
700,07	5062,74
700,27	4988,72
700,46	4805,97
700,66	4875,66
700,85	4821,54
701,04	4636,67
701,24	4644,01
701,43	4640,92
701,62	4576,69
701,82	4578,74
702,01	4507,87
702,20	4900,40
702,40	4893,87
702,59	4988,04
702,79	5222,97
702,98	5393,63
703,17	5558,41
703,37	5840,97
703,56	5823,90
703,75	5812,43
703,95	5385,12
704,14	5386,09
704,33	5317,99
704,53	5077,99
704,72	4922,05
704,91	4688,22
705,11	4563,10
705,30	4660,04
705,49	4778,17
705,69	4761,56
705,88	4707,60
706,07	4774,60
706,27	4914,51
706,46	4931,54
706,65	5010,01
706,85	4888,40
707,04	4871,21
707,23	4715,82
707,43	4778,07
707,62	4781,16
707,81	4782,07
708,01	4708,22
708,20	4628,38
708,39	4621,52
708,58	4612,45
708,78	4545,48
708,97	4601,33
709,16	4556,44
709,36	4516,62
709,55	4502,41
709,74	4516,32
709,94	4757,30
710,13	4739,16
710,32	4719,56
710,51	4779,67
710,71	4796,12
710,90	4837,50
711,09	4919,84
711,29	5125,35
711,48	5195,34
711,67	4990,77
711,86	5018,24
712,06	5074,57
712,25	5033,19
712,44	4963,50
712,64	4949,97
712,83	4905,99
713,02	4726,74
713,21	4725,61
713,41	4691,05
713,60	4717,32
713,79	4659,81
713,98	4524,26
714,18	4724,79
714,37	4864,58
714,56	4912,04
714,76	4937,95
714,95	4799,50
715,14	4984,82
715,33	4988,10
715,53	5028,38
715,72	5022,50
715,91	4850,83
716,10	4828,04
716,30	4964,15
716,49	4943,28
716,68	4944,25
716,87	4823,10
717,07	4712,60
717,26	4764,10
717,45	4846,34
717,64	4911,58
717,83	4894,00
718,03	4877,42
718,22	4978,64
718,41	5007,09
718,60	5075,91
718,80	5194,46
718,99	5146,45
719,18	5059,30
719,37	5043,37
719,57	4902,38
719,76	4758,76
719,95	4619,83
720,14	4716,54
720,33	4829,18
720,53	4842,57
720,72	4856,19
720,91	4914,64
721,10	4848,97
721,29	4856,12
721,49	4804,27
721,68	4772,45
721,87	4617,49
722,06	4423,32
722,26	4338,77
722,45	4380,28
722,64	4406,77
722,83	4448,25
723,02	4507,68
723,21	4510,70
723,41	4587,74
723,60	4769,82
723,79	4811,33
723,98	4808,70
724,17	4811,82
724,37	4744,98
724,56	4744,33
724,75	4661,27
724,94	4700,64
725,13	4651,49
725,33	4458,01
725,52	4533,81
725,71	4573,50
725,90	4482,74
726,09	4519,93
726,28	4736,01
726,48	4737,05
726,67	4751,25
726,86	4787,76
727,05	4813,57
727,24	4793,55
727,43	4740,92
727,63	4834,99
727,82	4967,17
728,01	4686,79
728,20	4713,58
728,39	4693,10
728,58	4658,77
728,77	4932,84
728,97	4758,89
729,16	4889,61
729,35	4898,45
729,54	4743,68
729,73	4708,25
729,92	4846,37
730,11	4800,60
730,31	4782,04
730,50	4534,59
730,69	4715,66
730,88	4597,10
731,07	4613,16
731,26	4682,47
731,45	4716,08
731,65	4541,26
731,84	4647,59
732,03	4563,00
732,22	4596,58
732,41	4388,24
732,60	4531,18
732,79	4453,06
732,98	4515,19
733,17	4475,46
733,37	4600,97
733,56	4471,89
733,75	4478,22
733,94	4356,39
734,13	4357,26
734,32	4173,70
734,51	4083,26
734,70	4082,58
734,89	4302,91
735,09	4182,50
735,28	4203,15
735,47	4264,00
735,66	4265,82
735,85	4266,89
736,04	4342,12
736,23	4303,79
736,42	4226,23
736,61	4146,03
736,80	4114,04
736,99	4111,90
737,19	4071,13
737,38	4162,87
737,57	4287,15
737,76	4226,26
737,95	4463,60
738,14	4387,92
738,33	4321,90
738,52	4339,03
738,71	4338,15
738,90	4349,43
739,09	4360,68
739,28	4330,93
739,47	4328,66
739,66	4189,62
739,86	4212,80
740,05	4303,66
740,24	4495,55
740,43	4463,21
740,62	4548,34
740,81	4506,77
741,00	4511,68
741,19	4464,70
741,38	4646,81
741,57	4635,63
741,76	4568,56
741,95	4489,90
742,14	4671,61
742,33	4613,55
742,52	4591,16
742,71	4483,72
742,90	4519,93
743,09	4407,72
743,28	4419,94
743,47	4365,13
743,66	4540,96
743,86	4418,57
744,05	4384,70
744,24	4348,00
744,43	4420,39
744,62	4471,17
744,81	4447,47
745,00	4410,93
745,19	4416,95
745,38	4195,54
745,57	4215,92
745,76	4238,03
745,95	4440,00
746,14	4418,51
746,33	4501,44
746,52	4416,36
746,71	4483,59
746,90	4462,17
747,09	4519,25
747,28	4486,35
747,47	4575,94
747,66	4639,75
747,85	4652,27
748,04	4475,10
748,23	4474,94
748,42	4370,92
748,61	4375,18
748,80	4302,16
748,99	4352,78
749,18	4323,39
749,37	4123,60
749,56	4137,48
749,75	4131,11
749,94	4127,21
750,13	4119,34
750,32	4145,97
750,51	4141,61
750,70	4127,37
750,89	4178,15
751,07	4120,32
751,26	4491,36
751,45	4602,05
751,64	4560,50
751,83	4611,47
752,02	5032,83
752,21	5072,75
752,40	4991,32
752,59	4822,32
752,78	4783,31
752,97	4465,68
753,16	4451,73
753,35	4545,13
753,54	4616,90
753,73	4253,53
753,92	4165,47
754,11	4225,48
754,30	4277,46
754,49	4356,32
754,68	4256,26
754,87	4343,45
755,06	4261,82
755,24	4183,32
755,43	4063,33
755,62	4066,65
755,81	4009,57
756,00	4087,29
756,19	4083,58
756,38	4176,65
756,57	4048,25
756,76	4040,67
756,95	4267,64
757,14	4331,49
757,33	4317,05
757,52	4254,90
757,71	4224,60
757,89	4103,41
758,08	4027,02
758,27	4055,40
758,46	4144,28
758,65	4055,43
758,84	4135,95
759,03	4242,64
759,22	4342,80
759,41	4376,22
759,60	4497,47
759,79	4449,88
759,97	4460,02
760,16	4435,06
760,35	4330,22
760,54	4216,80
760,73	4232,47
760,92	4361,07
761,11	4561,57
761,30	4472,73
761,49	4587,91
761,67	4498,51
761,86	4545,84
762,05	4462,91
762,24	4532,71
762,43	4537,00
762,62	4425,24
762,81	4150,29
763,00	4253,79
763,18	4136,31
763,37	4241,44
763,56	4061,93
763,75	4165,34
763,94	4068,31
764,13	4039,73
764,32	4095,32
764,51	4132,67
764,69	4160,76
764,88	4359,15
765,07	4489,60
765,26	4573,99
765,45	4638,81
765,64	4666,96
765,83	4682,24
766,01	4720,50
766,20	4649,21
766,39	4651,52
766,58	4514,47
766,77	4439,57
766,96	4553,84
767,14	4445,26
767,33	4396,66
767,52	4386,36
767,71	4293,58
767,90	4201,68
768,09	4091,13
768,27	4183,28
768,46	4158,71
768,65	4275,80
768,84	4256,69
769,03	4414,09
769,22	4357,33
769,40	4342,12
769,59	4512,16
769,78	4555,37
769,97	4566,26
770,16	4458,46
770,34	4377,26
770,53	4649,38
770,72	4545,42
770,91	4488,30
771,10	4419,19
771,29	4441,33
771,47	4384,60
771,66	4343,06
771,85	4339,26
772,04	4309,32
772,23	4061,71
772,41	4069,18
772,60	4061,51
772,79	4159,29
772,98	4070,61
773,17	4114,14
773,35	4047,96
773,54	4151,92
773,73	4112,26
773,92	4296,83
774,10	4242,22
774,29	4329,60
774,48	4354,79
774,67	4392,44
774,86	4542,04
775,04	4692,51
775,23	4635,40
775,42	4524,68
775,61	4462,20
775,79	4627,50
775,98	4592,65
776,17	4601,75
776,36	4665,63
776,54	4716,63
776,73	4600,19
776,92	4619,53
777,11	4856,42
777,30	4707,37
777,48	4507,51
777,67	4531,37
777,86	4501,37
778,05	4440,81
778,23	4273,01
778,42	4230,42
778,61	4275,38
778,80	4092,62
778,98	4068,27
779,17	4084,98
779,36	4113,07
779,54	4168,92
779,73	4048,83
779,92	4070,61
780,11	4111,38
780,29	3996,27
780,48	4096,33
780,67	4159,42
780,86	4226,97
781,04	4092,88
781,23	3909,54
781,42	3894,52
781,60	3813,94
781,79	3755,10
781,98	3714,72
782,17	3608,81
782,35	3642,30
782,54	3724,51
782,73	3771,38
782,91	3936,85
783,10	4170,15
783,29	4241,02
783,48	4372,80
783,66	4463,01
783,85	4456,22
784,04	4358,57
784,22	4270,53
784,41	4301,09
784,60	4356,74
784,79	4297,55
784,97	4372,19
785,16	4163,94
785,35	4189,33
785,53	4290,14
785,72	4334,70
785,91	4252,72
786,09	4268,39
786,28	4129,49
786,47	3943,09
786,65	3874,40
786,84	4034,24
787,03	3984,66
787,21	3969,19
787,40	3994,25
787,59	4061,51
787,77	4126,85
787,96	4226,03
788,15	4273,92
788,33	4259,45
788,52	4176,56
788,71	4295,40
788,89	4312,18
789,08	4422,60
789,27	4423,25
789,45	4307,66
789,64	4193,20
789,83	4200,16
790,01	4379,14
790,20	4417,34
790,39	4293,49
790,57	4353,04
790,76	4288,28
790,95	4379,14
791,13	4460,64
791,32	4568,92
791,50	4548,47
791,69	4358,27
791,88	4303,69
792,06	4337,31
792,25	4204,58
792,44	4225,77
792,62	4067,92
792,81	4061,12
792,99	3956,68
793,18	4056,57
793,37	4113,69
793,55	4116,09
793,74	4156,30
793,93	4231,75
794,11	4164,79
794,30	4318,39
794,48	4266,24
794,67	4259,64
794,86	5479,81
795,04	5433,68
795,23	5438,40
795,41	5353,10
795,60	5259,83
795,79	5261,07
795,97	5155,71
796,16	5210,65
796,34	5286,56
796,53	4409,24
796,72	4440,48
796,90	4441,07
797,09	4738,06
797,27	4760,91
797,46	4782,69
797,65	4888,01
797,83	4899,33
798,02	4853,20
798,20	4542,07
798,39	4506,05
798,58	4504,75
798,76	4162,35
798,95	4255,03
799,13	4225,25
799,32	4269,56
799,50	4307,59
799,69	4268,03
799,88	4186,02
800,06	4283,83
800,25	4343,45
800,43	4416,40
800,62	4295,11
800,80	4346,93
800,99	4347,87
801,17	4246,97
801,36	4189,43
801,55	4264,07
801,73	4075,17
801,92	4123,83
802,10	4092,95
802,29	4284,25
802,47	4378,26
802,66	4163,00
802,84	4159,55
803,03	4217,61
803,21	4205,62
803,40	4415,06
803,59	4452,51
803,77	4459,44
803,96	4346,93
804,14	4344,26
804,33	4590,99
804,51	4537,52
804,70	4568,69
804,88	4475,69
805,07	4543,89
805,25	4403,00
805,44	4310,88
805,62	4248,01
805,81	4070,61
805,99	3930,05
806,18	4022,11
806,36	4069,25
806,55	4067,20
806,73	3858,21
806,92	3941,82
807,10	3941,53
807,29	4252,66
807,47	4350,73
807,66	4305,25
807,84	4304,67
808,03	4278,37
808,21	4502,80
808,40	4548,02
808,58	4690,63
808,77	4866,33
808,95	4853,95
809,14	4850,86
809,32	4882,19
809,51	4871,53
809,69	4956,25
809,88	4846,01
810,06	4805,22
810,25	4544,70
810,43	4531,37
810,62	4271,84
810,80	4148,57
810,99	4399,46
811,17	4484,50
811,36	4319,95
811,54	4307,17
811,73	4323,62
811,91	4476,44
812,09	4544,35
812,28	4448,06
812,46	4543,96
812,65	4316,40
812,83	4207,47
813,02	4345,40
813,20	4234,74
813,39	4234,74
813,57	4129,19
813,76	4046,92
813,94	4043,93
814,12	4132,70
814,31	4034,24
814,49	4453,23
814,68	4365,10
814,86	4493,34
815,05	4449,78
815,23	4471,04
815,41	4452,32
815,60	4520,09
815,78	4368,06
815,97	4506,96
816,15	4121,03
816,34	4119,25
816,52	3970,13
816,70	4081,11
816,89	4113,07
817,07	4134,65
817,26	4136,57
817,44	4153,61
817,63	4248,89
817,81	4230,13
817,99	4271,93
818,18	4352,97
818,36	4367,24
818,55	4467,20
818,73	4524,35
818,91	4619,99
819,10	4587,58
819,28	4458,33
819,47	4499,45
819,65	4504,85
819,83	4551,69
820,02	4587,22
820,20	4534,72
820,39	4564,63
820,57	4488,11
820,75	4542,13
820,94	4568,60
821,12	4563,20
821,31	4533,33
821,49	4560,47
821,67	4427,35
821,86	4316,79
822,04	4245,15
822,22	4252,85
822,41	4276,87
822,59	4186,50
822,78	4175,78
822,96	4149,77
823,14	4053,19
823,33	4051,56
823,51	4210,17
823,69	4225,25
823,88	4186,86
824,06	4147,62
824,24	4161,15
824,43	4088,10
824,61	4132,02
824,80	4303,33
824,98	4346,15
825,16	4266,02
825,35	4085,34
825,53	4182,47
825,71	4169,18
825,90	4220,15
826,08	4229,84
826,26	4197,10
826,45	4110,60
826,63	4247,97
826,81	4348,16
827,00	4462,20
827,18	4396,18
827,36	4320,53
827,55	4418,90
827,73	4535,47
827,91	4537,94
828,10	4641,83
828,28	4467,14
828,46	4356,26
828,65	4231,01
828,83	4470,72
829,01	4509,95
829,20	4405,86
829,38	4503,74
829,56	4531,47
829,74	4547,76
829,93	4612,48
830,11	4660,53
830,29	4936,61
830,48	4852,97
830,66	4882,72
830,84	4939,90
831,03	5012,45
831,21	4971,95
831,39	4887,49
831,57	4823,00
831,76	4715,69
831,94	4508,36
832,12	4291,92
832,31	4364,42
832,49	4288,48
832,67	4039,21
832,85	4064,93
833,04	3969,91
833,22	3935,55
833,40	3989,15
833,59	4030,14
833,77	4013,69
833,95	4102,83
834,13	4136,83
834,32	4115,25
834,50	4130,75
834,68	4100,42
834,86	4188,78
835,05	4200,38
835,23	4104,49
835,41	4141,74
835,59	3948,32
835,78	3810,46
835,96	3877,42
836,14	3921,83
836,33	4001,08
836,51	3940,84
836,69	3879,83
836,87	4168,46
837,05	4195,96
837,24	4383,14
837,42	4664,69
837,60	4635,30
837,78	4586,21
837,97	4527,90
838,15	4568,14
838,33	4508,29
838,51	4245,31
838,70	4379,82
838,88	4216,41
839,06	4074,42
839,24	4118,73
839,43	4142,33
839,61	4249,28
839,79	4218,88
839,97	4607,73
840,15	4756,20
840,34	4592,20
840,52	4585,66
840,70	4533,23
840,88	4478,29
841,06	4439,83
841,25	4350,02
841,43	4432,13
841,61	4030,73
841,79	3916,50
841,98	3921,14
842,16	3902,84
842,34	3978,91
842,52	3994,03
842,70	3968,96
842,88	3937,79
843,07	3881,65
843,25	4042,53
843,43	4095,84
843,61	4044,25
843,79	4141,64
843,98	4225,58
844,16	4203,70
844,34	4271,74
844,52	4390,45
844,70	4438,27
844,89	4389,09
845,07	4501,99
845,25	4642,88
845,43	4593,24
845,61	4492,63
845,79	4498,02
845,98	4541,06
846,16	4439,74
846,34	4480,86
846,52	4431,97
846,70	4291,24
846,88	4144,67
847,06	4179,68
847,25	4219,01
847,43	4261,24
847,61	4329,73
847,79	4417,11
847,97	4327,59
848,15	4475,14
848,34	4427,71
848,52	4463,21
848,70	4716,02
848,88	4680,45
849,06	4670,80
849,24	4448,68
849,42	4440,68
849,61	4443,70
849,79	4207,70
849,97	4257,21
850,15	4355,35
850,33	4149,90
850,51	4087,26
850,69	4148,21
850,87	4185,20
851,06	4124,80
851,24	4151,04
851,42	4241,25
851,60	4380,51
851,78	4395,49
851,96	4377,58
852,14	4374,01
852,32	4354,01
852,50	4389,93
852,69	4416,88
852,87	4348,75
853,05	4373,19
853,23	4276,35
853,41	4186,76
853,59	4101,63
853,77	4191,15
853,95	4122,56
854,13	4232,27
854,31	4239,17
854,50	4315,33
854,68	4437,07
854,86	4385,35
855,04	4528,32
855,22	4513,66
855,40	4541,58
855,58	4541,13
855,76	4584,75
855,94	4583,61
856,12	4804,05
856,30	4652,82
856,48	4672,29
856,66	4710,23
856,85	4734,16
857,03	4679,54
857,21	4671,90
857,39	4477,96
857,57	4395,30
857,75	4193,88
857,93	4223,95
858,11	4184,16
858,29	4009,53
858,47	3963,47
858,65	3861,98
858,83	4018,93
859,01	4228,44
859,19	4275,25
859,37	4211,21
859,55	4302,23
859,73	4556,34
859,91	4532,84
860,10	4612,87
860,28	4670,15
860,46	4692,35
860,64	4517,17
860,82	4523,74
861,00	4535,96
861,18	4548,34
861,36	4303,56
861,54	4350,73
861,72	4375,92
861,90	4616,38
862,08	4544,48
862,26	4600,52
862,44	4636,99
862,62	4761,14
862,80	4655,75
862,98	4744,27
863,16	4684,32
863,34	4956,21
863,52	4764,88
863,70	4746,61
863,88	4655,29
864,06	4610,95
864,24	4477,12
864,42	4455,14
864,60	4314,29
864,78	4441,59
864,96	4154,84
865,14	4131,47
865,32	4010,18
865,50	4048,80
865,68	4050,56
865,86	4070,94
866,04	4054,26
866,22	4161,67
866,40	4040,64
866,58	4041,62
866,76	3975,56
866,94	3970,36
867,12	4075,91
867,30	4027,93
867,48	4129,65
867,66	4108,03
867,84	4007,58
868,02	3988,99
868,20	3946,44
868,38	3946,47
868,56	4039,86
868,73	3990,32
868,91	3964,25
869,09	3761,47
869,27	3851,94
869,45	4035,38
869,63	4114,04
869,81	4121,10
869,99	4156,50
870,17	4140,12
870,35	4093,40
870,53	4186,11
870,71	4232,79
870,89	4237,34
871,07	4248,98
871,25	4261,27
871,43	4138,49
871,61	4133,81
871,79	4107,38
871,97	4173,60
872,14	4123,08
872,32	4203,89
872,50	4121,65
872,68	3946,37
872,86	3856,75
873,04	4174,22
873,22	4115,18
873,40	4187,74
873,58	4294,23
873,76	4418,25
873,94	4405,80
874,12	4515,51
874,29	4663,84
874,47	4713,03
874,65	4618,56
874,83	4661,63
875,01	4569,86
875,19	4421,27
875,37	4348,59
875,55	4335,58
875,73	4314,68
875,91	7857,76
876,08	7766,55
876,26	7701,14
876,44	7846,39
876,62	8035,22
876,80	8021,28
876,98	7936,43
877,16	7897,10
877,34	7929,57
877,52	4223,40
877,69	4327,39
877,87	4377,22
878,05	4253,31
878,23	4045,75
878,41	4238,39
878,59	4313,22
878,77	4420,23
878,95	4270,01
879,12	4392,21
879,30	4344,98
879,48	4331,45
879,66	4261,92
879,84	4340,23
880,02	4121,23
880,20	4105,01
880,37	4155,95
880,55	4213,94
880,73	4152,63
880,91	4178,47
881,09	4237,54
881,27	4239,75
881,45	4253,57
881,62	4244,95
881,80	4310,55
881,98	4337,73
882,16	5339,90
882,34	5352,32
882,52	5314,25
882,69	5301,38
882,87	5389,28
883,05	5356,02
883,23	5467,26
883,41	5400,49
883,59	5261,62
883,76	4272,94
883,94	4434,34
884,12	4457,62
884,30	4437,04
884,48	4355,90
884,65	4329,31
884,83	4329,44
885,01	4402,48
885,19	4377,58
885,37	4507,19
885,55	4424,36
885,72	4401,73
885,90	4316,53
886,08	4396,70
886,26	4414,35
886,44	4308,80
886,61	4248,92
886,79	4169,34
886,97	4195,38
887,15	4149,93
887,32	4479,88
887,50	4571,26
887,68	4657,50
887,86	4618,30
888,04	4806,23
888,21	7899,05
888,39	8040,65
888,57	8030,87
888,75	8072,15
888,93	7842,91
889,10	7764,56
889,28	7558,30
889,46	7656,71
889,64	7647,96
889,81	4526,17
889,99	4449,55
890,17	4279,86
890,35	4196,97
890,52	4101,50
890,70	4494,90
890,88	4584,75
891,06	4545,16
891,23	4442,76
891,41	4472,99
891,59	4644,24
891,77	4588,46
891,94	4576,01
892,12	4708,93
892,30	4290,04
892,48	4284,84
892,65	4180,33
892,83	4119,18
893,01	4015,03
893,19	3969,09
893,36	4096,88
893,54	4032,91
893,72	3839,00
893,90	3883,24
894,07	3937,01
894,25	3970,75
894,43	4022,57
894,60	4140,08
894,78	4032,13
894,96	3984,70
895,14	4052,05
895,31	4135,73
895,49	4140,90
895,67	4228,37
895,84	4437,49
896,02	4389,32
896,20	4643,07
896,38	4526,01
896,55	4471,30
896,73	4441,36
896,91	4508,55
897,08	4498,02
897,26	4416,17
897,44	4265,46
897,61	4353,07
897,79	4146,16
897,97	4230,23
898,15	4415,26
898,32	4450,53
898,50	4406,29
898,68	4275,51
898,85	4274,79
899,03	4365,55
899,21	4241,28
899,38	4167,10
899,56	4199,34
899,74	4113,04
899,91	4141,71
900,09	4237,31
900,27	4312,66
900,44	4227,43
900,62	4288,12
900,80	4280,38
900,97	4271,58
901,15	4234,84
901,33	4153,61
901,50	4311,43
901,68	4234,16
901,86	4414,74
902,03	4470,68
902,21	4355,87
902,39	4526,08
902,56	4671,32
902,74	4829,92
902,92	4873,61
903,09	4725,61
903,27	4677,63
903,44	4566,55
903,62	4752,69
903,80	4754,51
903,97	4646,91
904,15	4503,58
904,33	4412,59
904,50	4411,06
904,68	4294,10
904,85	4335,78
905,03	4367,80
905,21	4183,25
905,38	4080,40
905,56	4132,48
905,74	4170,35
905,91	4180,36
906,09	4171,26
906,26	4502,87
906,44	4544,22
906,62	4567,26
906,79	4527,64
906,97	4618,66
907,14	4548,18
907,32	4576,33
907,50	4644,76
907,67	4650,45
907,85	4348,88
908,02	4242,29
908,20	4117,29
908,38	4126,62
908,55	4067,40
908,73	4142,23
908,90	4153,51
909,08	3941,59
909,26	4005,50
909,43	4154,45
909,61	4204,84
909,78	4230,32
909,96	4232,66
910,13	4247,00
910,31	4140,60
910,49	5279,14
910,66	5469,86
910,84	5506,11
911,01	5458,10
911,19	5453,68
911,36	5453,16
911,54	5392,59
911,72	5387,46
911,89	5358,69
912,07	4279,96
912,24	4121,16
912,42	4013,69
912,59	4005,50
912,77	3949,69
912,94	3953,33
913,12	4209,65
913,30	4157,99
913,47	4332,10
913,65	4205,33
913,82	4303,73
914,00	4393,58
914,17	4514,96
914,35	4640,08
914,52	4742,06
914,70	4599,41
914,87	4664,40
915,05	4717,90
915,22	4675,87
915,40	4571,85
915,57	4551,69
915,75	4376,35
915,93	4309,67
916,10	4379,11
916,28	4281,46
916,45	4226,52
916,63	4210,40
916,80	4176,72
916,98	4205,00
917,15	4163,75
917,33	4172,10
917,50	4251,45
917,68	4097,66
917,85	4276,39
918,03	4281,72
918,20	4063,66
918,38	4253,76
918,55	4324,59
918,73	4388,86
918,90	4372,87
919,08	4364,58
919,25	4413,67
919,43	4847,77
919,60	4876,34
919,78	5009,79
919,95	4927,25
920,13	4897,57
920,30	4803,10
920,47	5003,25
920,65	4952,35
920,82	4820,40
921,00	4265,72
921,17	4392,57
921,35	4375,89
921,52	4318,03
921,70	4445,72
921,87	4433,79
922,05	4355,25
922,22	4409,76
922,40	4477,90
922,57	4450,92
922,75	4340,36
922,92	4217,61
923,09	4172,26
923,27	4240,73
923,44	4331,81
923,62	4295,50
923,79	4209,06
923,97	4244,04
924,14	4278,24
924,32	4354,83
924,49	4493,93
924,66	4756,81
924,84	4623,53
925,01	4708,25
925,19	4695,83
925,36	4651,59
925,54	4674,37
925,71	4621,84
925,88	4778,92
926,06	4726,94
926,23	4503,94
926,41	4507,16
926,58	4296,51
926,75	4237,41
926,93	4229,19
927,10	4205,06
927,28	4239,43
927,45	4104,42
927,63	4098,47
927,80	4136,54
927,97	3960,12
928,15	3940,84
928,32	3926,02
928,50	3906,32
928,67	4038,69
928,84	4056,05
929,02	4131,21
929,19	4108,91
929,37	4136,96
929,54	4232,50
929,71	4361,91
929,89	4395,62
930,06	4395,36
930,23	4309,64
930,41	4325,67
930,58	4233,77
930,76	4218,26
930,93	4277,04
931,10	4262,54
931,28	4305,77
931,45	4271,97
931,62	4384,02
931,80	4338,54
931,97	4427,64
932,15	4403,10
932,32	4358,63
932,49	4271,74
932,67	4415,39
932,84	4506,67
933,01	4473,84
933,19	4392,73
933,36	4364,03
933,53	4289,26
933,71	4269,36
933,88	4361,10
934,05	4491,94
934,23	4575,13
934,40	4391,30
934,57	4496,85
934,75	4658,90
934,92	4598,31
935,09	4621,84
935,27	4627,92
935,44	4605,13
935,61	4481,38
935,79	4302,03
935,96	4350,83
936,13	4299,37
936,31	4192,13
936,48	4213,74
936,65	4207,41
936,83	4144,21
937,00	4207,73
937,17	4137,25
937,35	4303,66
937,52	4400,82
937,69	4420,75
937,87	4417,83
938,04	4445,03
938,21	4314,97
938,38	4338,28
938,56	4243,59
938,73	4327,68
938,90	4167,78
939,08	4075,98
939,25	4184,20
939,42	4233,64
939,60	4208,45
939,77	4290,20
939,94	4452,41
940,11	4552,70
940,29	4483,17
940,46	4527,90
940,63	4542,33
940,81	4422,57
940,98	4368,71
941,15	4358,11
941,32	4284,29
941,50	4099,94
941,67	4080,79
941,84	4293,84
942,01	4247,36
942,19	4162,25
942,36	4255,03
942,53	4231,82
942,71	4317,54
942,88	4282,21
943,05	4368,51
943,22	4256,17
943,40	4067,53
943,57	4107,87
943,74	4254,41
943,91	4174,31
944,09	4193,59
944,26	4127,70
944,43	4265,50
944,60	4242,64
944,77	4382,07
944,95	4383,95
945,12	4391,01
945,29	4221,06
945,46	4162,12
945,64	4201,85
945,81	4258,60
945,98	4287,47
946,15	4349,20
946,33	4276,09
946,50	4396,79
946,67	4300,21
946,84	4341,11
947,01	4307,07
947,19	4270,50
947,36	4368,09
947,53	4245,02
947,70	4154,48
947,87	4308,24
948,05	4269,33
948,22	4325,51
948,39	4338,44
948,56	4483,26
948,74	4416,10
948,91	4269,59
949,08	4243,39
949,25	4228,02
949,42	4074,91
949,59	4086,51
949,77	4263,55
949,94	4239,13
950,11	4193,36
950,28	4151,56
950,45	4264,46
950,63	4498,41
950,80	4574,77
950,97	4608,29
951,14	4422,21
951,31	4198,47
951,48	4112,45
951,66	4309,71
951,83	4348,49
952,00	4314,88
952,17	4092,95
952,34	3923,75
952,51	3884,02
952,69	4138,13
952,86	4198,50
953,03	4239,78
953,20	3987,40
953,37	4265,50
953,54	4272,32
953,72	4441,39
953,89	4563,17
954,06	4618,10
954,23	4449,78
954,40	4516,45
954,57	4528,90
954,74	4494,71
954,92	4363,18
955,09	4348,65
955,26	4314,26
955,43	4291,99
955,60	4259,55
955,77	4195,28
955,94	4027,90
956,11	4204,09
956,29	4341,30
956,46	4267,25
956,63	4178,60
956,80	4172,00
956,97	4226,71
957,14	4215,17
957,31	4218,88
957,48	4314,68
957,66	4292,64
957,83	4349,98
958,00	4314,16
958,17	4369,13
958,34	4384,18
958,51	4388,73
958,68	4405,73
958,85	4544,05
959,02	4569,96
959,19	4399,10
959,37	4258,77
959,54	4379,40
959,71	4350,18
959,88	4559,88
960,05	4573,05
960,22	4645,96
960,39	4692,55
960,56	4608,22
960,73	4734,51
960,90	4882,36
961,07	4796,57
961,24	4787,11
961,42	4475,95
961,59	4351,93
961,76	4228,70
961,93	4232,01
962,10	4169,73
962,27	4213,06
962,44	4274,60
962,61	4321,90
962,78	4361,88
962,95	4418,80
963,12	4440,61
963,29	4482,39
963,46	4362,76
963,63	4589,43
963,80	4557,61
963,97	4596,65
964,14	4453,78
964,32	4433,82
964,49	4439,96
964,66	4536,90
964,83	4486,55
965,00	4583,68
965,17	4476,40
965,34	4441,26
965,51	4285,68
965,68	4427,84
965,85	4402,26
966,02	4380,57
966,19	4383,14
966,36	4393,67
966,53	4311,17
966,70	4353,36
966,87	4317,54
967,04	4428,42
967,21	4348,46
967,38	4554,00
967,55	4532,48
967,72	4491,65
967,89	4563,62
968,06	4600,62
968,23	4533,88
968,40	4552,37
968,57	4371,02
968,74	4467,79
968,91	4334,51
969,08	4333,01
969,25	4499,39
969,42	4484,56
969,59	4492,07
969,76	4426,86
969,93	4440,09
970,10	4399,23
970,27	4287,08
970,44	4293,58
970,61	4415,75
970,78	4151,66
970,95	4060,31
971,12	4041,16
971,29	4130,04
971,46	4012,20
971,63	4052,05
971,80	4069,38
971,97	4136,47
972,14	3978,03
972,31	3991,39
972,48	4033,95
972,65	4064,05
972,82	4050,85
972,98	4048,44
973,15	4069,74
973,32	4199,21
973,49	3980,99
973,66	3982,97
973,83	4041,65
974,00	4218,62
974,17	4176,13
974,34	4113,72
974,51	4421,86
974,68	4346,73
974,85	4314,65
975,02	4450,89
975,19	4518,37
975,36	4584,17
975,53	4431,61
975,70	4435,64
975,86	4766,24
976,03	4598,63
976,20	4691,25
976,37	4751,97
976,54	4751,25
976,71	4683,12
976,88	4661,76
977,05	4626,20
977,22	4713,87
977,39	4523,67
977,56	4483,69
977,73	4450,53
977,89	4300,93
978,06	4229,58
978,23	4260,17
978,40	4155,78
978,57	4222,75
978,74	4158,74
978,91	4165,73
979,08	4260,49
979,25	4351,25
979,42	4446,99
979,58	4399,75
979,75	4376,48
979,92	4489,54
980,09	4477,28
980,26	4535,86
980,43	4453,42
980,60	4336,23
980,77	4326,16
980,93	4218,88
981,10	4489,64
981,27	4551,20
981,44	4545,68
981,61	4513,37
981,78	4319,30
981,95	4406,55
982,12	4422,83
982,28	4520,19
982,45	4476,40
982,62	4340,69
982,79	4345,79
982,96	4310,52
983,13	4266,63
983,29	4410,45
983,46	4325,02
983,63	4239,46
983,80	4114,34
983,97	4257,89
984,14	4196,22
984,31	4170,80
984,47	4126,43
984,64	4137,06
984,81	4109,69
984,98	4183,38
985,15	4269,40
985,32	4230,91
985,48	4176,85
985,65	4202,33
985,82	4191,05
985,99	4201,20
986,16	4279,93
986,32	4312,79
986,49	4135,86
986,66	4150,55
986,83	4132,54
987,00	4090,18
987,17	3954,27
987,33	3912,56
987,50	3912,01
987,67	4197,39
987,84	4104,97
988,01	4220,47
988,17	4340,78
988,34	4356,03
988,51	4367,41
988,68	4427,81
988,85	4553,19
989,01	4528,25
989,18	4275,61
989,35	4282,04
989,52	4209,65
989,68	4035,67
989,85	4074,06
990,02	4220,64
990,19	4323,23
990,36	4424,13
990,52	4591,97
990,69	4743,71
990,86	4760,13
991,03	4782,53
991,19	4827,81
991,36	4789,84
991,53	4696,28
991,70	4619,40
991,87	4412,66
992,03	4332,20
992,20	4112,81
992,37	4175,55
992,54	4282,82
992,70	4238,32
992,87	4411,00
993,04	4360,94
993,21	4535,37
993,37	4570,12
993,54	4632,21
993,71	4590,34
993,88	4603,31
994,04	4476,27
994,21	4732,17
994,38	4681,92
994,54	4708,44
994,71	4616,77
994,88	4614,59
995,05	4522,37
995,21	4615,80
995,38	4656,59
995,55	4750,57
995,72	4649,99
995,88	4638,81
996,05	4660,53
996,22	4578,84
996,38	4653,93
996,55	4573,08
996,72	4581,37
996,89	4530,30
997,05	4521,95
997,22	4297,45
997,39	4145,12
997,55	4145,48
997,72	4218,65
997,89	4145,38
998,05	4224,60
998,22	4122,17
998,39	4069,15
998,56	3982,91
998,72	4102,86
998,89	4280,45
999,06	4272,52
999,22	4165,80
999,39	4200,84
999,56	4167,78
999,72	4357,30
999,89	4507,12
1000,06	4591,12
1000,22	4545,97
1000,39	4459,05
1000,56	4399,04
1000,72	4487,42
1000,89	4424,10
1001,06	4442,34
1001,22	4258,93
1001,39	4144,24
1001,56	4133,55
1001,72	4169,66
1001,89	4128,84
1002,06	4315,69
1002,22	4374,85
1002,39	4424,52
1002,56	4595,41
1002,72	4713,84
1002,89	4747,09
1003,05	4701,19
1003,22	4754,70
1003,39	4796,60
1003,55	4768,58
1003,72	4774,86
1003,89	4730,09
1004,05	4628,73
1004,22	4517,46
1004,39	4472,28
1004,55	4464,21
1004,72	4505,56
1004,88	4480,34
1005,05	4393,19
1005,22	4292,09
1005,38	4329,96
1005,55	4235,95
1005,72	4239,36
1005,88	4203,73
1006,05	4331,16
1006,21	4223,72
1006,38	4346,73
1006,55	4376,12
1006,71	4446,53
1006,88	4412,46
1007,04	4425,08
1007,21	4398,87
1007,38	4527,90
1007,54	4389,32
1007,71	4371,80
1007,87	4271,58
1008,04	4217,19
1008,21	4179,16
1008,37	4196,65
1008,54	4186,41
1008,70	4259,42
1008,87	4216,77
1009,03	4225,35
1009,20	4324,24
1009,37	4522,73
1009,53	4510,05
1009,70	4584,49
1009,86	4577,50
1010,03	4681,36
1010,19	4637,54
1010,36	4633,19
1010,53	4645,93
1010,69	4677,24
1010,86	4579,65
1011,02	4578,02
1011,19	4484,73
1011,35	4473,97
1011,52	4453,49
1011,68	4523,22
1011,85	4390,32
1012,02	4412,04
1012,18	4363,02
1012,35	4281,55
1012,51	4553,71
1012,68	4754,05
1012,84	4812,99
1013,01	4725,22
1013,17	4597,62
1013,34	4673,92
1013,50	4844,45
1013,67	4714,98
1013,84	4626,36
1014,00	4274,63
1014,17	4195,28
1014,33	4093,76
1014,50	4208,02
1014,66	4279,83
1014,83	4329,60
1014,99	4085,80
1015,16	4305,29
1015,32	4315,66
1015,49	4362,43
1015,65	4227,11
1015,82	4309,54
1015,98	4456,90
1016,15	4476,79
1016,31	4476,14
1016,48	4748,56
1016,64	4659,45
1016,81	4735,46
1016,97	4760,29
1017,14	4700,71
1017,30	4714,03
1017,47	4493,31
1017,63	4637,19
1017,80	4518,89
1017,96	4408,50
1018,13	4344,46
1018,29	4256,26
1018,46	4235,20
1018,62	4482,61
1018,79	4582,15
1018,95	4629,90
1019,11	4551,59
1019,28	4512,65
1019,44	4480,66
1019,61	4490,38
1019,77	4433,17
1019,94	4537,78
1020,10	4347,97
1020,27	4362,89
1020,43	4403,00
1020,60	4443,60
1020,76	4550,33
1020,93	4409,31
1021,09	4407,20
1021,25	4509,89
1021,42	4371,24
1021,58	4383,17
1021,75	4190,66
1021,91	4232,86
1022,08	4135,56
1022,24	4193,78
1022,41	4300,54
1022,57	4234,97
1022,73	4295,01
1022,90	4353,30
1023,06	4309,51
1023,23	4422,86
1023,39	4434,47
1023,56	4498,96
1023,72	4443,47
1023,88	4483,88
1024,05	4536,54
1024,21	4482,09
1024,38	4540,41
1024,54	4627,73
1024,70	4571,00
1024,87	4336,82
1025,03	4283,73
1025,20	4281,65
1025,36	4219,47
1025,52	4280,06
1025,69	4205,26
1025,85	4223,59
1026,02	4282,60
1026,18	4366,69
1026,34	4497,60
1026,51	4597,49
1026,67	4521,33
1026,84	4507,74
1027,00	4489,90
1027,16	4513,40
1027,33	4441,13
1027,49	4448,32
1027,66	4601,36
1027,82	4564,89
1027,98	4452,97
1028,15	4477,15
1028,31	4451,86
1028,47	4370,46
1028,64	4500,75
1028,80	4506,25
1028,97	4341,99
1029,13	4206,30
1029,29	4212,09
1029,46	4292,18
1029,62	4280,87
1029,78	4261,43
1029,95	4308,34
1030,11	4129,19
1030,27	4038,17
1030,44	4096,26
1030,60	3981,64
1030,76	3962,20
1030,93	3915,59
1031,09	4027,70
1031,25	4069,80
1031,42	4025,62
1031,58	4121,62
1031,74	4261,43
1031,91	4280,12
1032,07	4366,76
1032,23	4493,11
1032,40	4405,44
1032,56	4410,28
1032,72	4383,86
1032,89	4443,08
1033,05	4466,23
1033,21	4485,38
1033,38	4420,04
1033,54	4350,05
1033,70	4183,06
1033,87	4199,77
1034,03	4154,06
1034,19	4130,72
1034,36	4100,20
1034,52	4178,41
1034,68	4233,51
1034,84	4303,76
1035,01	4422,12
1035,17	4554,23
1035,33	4611,73
1035,50	4629,90
1035,66	4657,70
1035,82	4706,85
1035,99	4591,74
1036,15	4458,46
1036,31	4432,00
1036,47	4479,72
1036,64	4519,31
1036,80	4435,12
1036,96	4470,00
1037,12	4519,54
1037,29	4389,12
1037,45	4355,57
1037,61	4432,81
1037,78	4551,66
1037,94	4353,07
1038,10	4323,39
1038,26	4373,13
1038,43	4244,11
1038,59	4254,15
1038,75	4353,95
1038,91	4393,09
1039,08	4461,48
1039,24	4297,16
1039,40	4450,92
1039,56	4497,99
1039,73	4505,79
1039,89	4544,15
1040,05	4542,49
1040,21	4755,29
1040,38	4792,51
1040,54	4752,82
1040,70	4884,31
1040,86	4800,76
1041,03	4590,28
1041,19	4556,34
1041,35	4497,01
1041,51	4517,23
1041,67	4321,44
1041,84	4203,63
1042,00	4074,84
1042,16	4076,11
1042,32	4147,43
1042,49	4339,06
1042,65	4290,95
1042,81	4471,11
1042,97	4531,34
1043,13	4551,95
1043,30	4648,47
1043,46	4699,57
1043,62	5200,09
1043,78	4510,21
1043,94	4482,42
1044,11	4203,60
>>>>>End Processed Spectral Data<<<<<
